time_seconds,ecg_lead_II_mV
0.0,-0.995
0.002777777777777778,-0.995
0.005555555555555556,-0.995
0.008333333333333333,-0.995
0.011111111111111112,-0.995
0.013888888888888888,-0.995
0.016666666666666666,-0.995
0.019444444444444445,-1.015
0.022222222222222223,-0.985
0.025,-0.985
0.027777777777777776,-0.97
0.030555555555555555,-0.975
0.03333333333333333,-0.97
0.03611111111111111,-0.99
0.03888888888888889,-1.0
0.041666666666666664,-1.02
0.044444444444444446,-1.025
0.04722222222222222,-1.03
0.05,-1.045
0.05277777777777778,-1.025
0.05555555555555555,-1.035
0.058333333333333334,-1.015
0.06111111111111111,-1.015
0.06388888888888888,-0.995
0.06666666666666667,-0.99
0.06944444444444445,-0.99
0.07222222222222222,-0.995
0.075,-1.005
0.07777777777777778,-1.005
0.08055555555555556,-1.015
0.08333333333333333,-1.01
0.08611111111111111,-0.99
0.08888888888888889,-1.02
0.09166666666666666,-1.01
0.09444444444444444,-1.015
0.09722222222222222,-1.0
0.1,-0.99
0.10277777777777777,-0.995
0.10555555555555556,-1.01
0.10833333333333334,-1.005
0.1111111111111111,-1.015
0.11388888888888889,-0.995
0.11666666666666667,-1.005
0.11944444444444445,-1.005
0.12222222222222222,-0.985
0.125,-0.985
0.12777777777777777,-0.98
0.13055555555555556,-0.96
0.13333333333333333,-0.94
0.1361111111111111,-0.96
0.1388888888888889,-0.94
0.14166666666666666,-0.945
0.14444444444444443,-0.945
0.14722222222222223,-0.94
0.15,-0.95
0.1527777777777778,-0.935
0.15555555555555556,-0.915
0.15833333333333333,-0.905
0.16111111111111112,-0.89
0.1638888888888889,-0.875
0.16666666666666666,-0.86
0.16944444444444445,-0.865
0.17222222222222222,-0.86
0.175,-0.845
0.17777777777777778,-0.85
0.18055555555555555,-0.85
0.18333333333333332,-0.84
0.18611111111111112,-0.82
0.18888888888888888,-0.805
0.19166666666666668,-0.775
0.19444444444444445,-0.755
0.19722222222222222,-0.725
0.2,-0.705
0.20277777777777778,-0.685
0.20555555555555555,-0.67
0.20833333333333334,-0.67
0.2111111111111111,-0.66
0.21388888888888888,-0.65
0.21666666666666667,-0.63
0.21944444444444444,-0.605
0.2222222222222222,-0.6
0.225,-0.56
0.22777777777777777,-0.53
0.23055555555555557,-0.52
0.23333333333333334,-0.495
0.2361111111111111,-0.475
0.2388888888888889,-0.47
0.24166666666666667,-0.45
0.24444444444444444,-0.45
0.24722222222222223,-0.445
0.25,-0.435
0.25277777777777777,-0.425
0.25555555555555554,-0.415
0.25833333333333336,-0.385
0.2611111111111111,-0.37
0.2638888888888889,-0.365
0.26666666666666666,-0.365
0.26944444444444443,-0.35
0.2722222222222222,-0.37
0.275,-0.395
0.2777777777777778,-0.42
0.28055555555555556,-0.445
0.2833333333333333,-0.47
0.2861111111111111,-0.49
0.28888888888888886,-0.525
0.2916666666666667,-0.55
0.29444444444444445,-0.555
0.2972222222222222,-0.59
0.3,-0.615
0.30277777777777776,-0.65
0.3055555555555556,-0.685
0.30833333333333335,-0.74
0.3111111111111111,-0.765
0.3138888888888889,-0.8
0.31666666666666665,-0.83
0.3194444444444444,-0.845
0.32222222222222224,-0.85
0.325,-0.865
0.3277777777777778,-0.875
0.33055555555555555,-0.87
0.3333333333333333,-0.865
0.33611111111111114,-0.87
0.3388888888888889,-0.89
0.3416666666666667,-0.905
0.34444444444444444,-0.925
0.3472222222222222,-0.93
0.35,-0.945
0.3527777777777778,-0.95
0.35555555555555557,-0.935
0.35833333333333334,-0.93
0.3611111111111111,-0.93
0.3638888888888889,-0.925
0.36666666666666664,-0.93
0.36944444444444446,-0.935
0.37222222222222223,-0.94
0.375,-0.93
0.37777777777777777,-0.95
0.38055555555555554,-0.935
0.38333333333333336,-0.95
0.3861111111111111,-0.955
0.3888888888888889,-0.96
0.39166666666666666,-0.945
0.39444444444444443,-0.92
0.3972222222222222,-0.915
0.4,-0.905
0.4027777777777778,-0.92
0.40555555555555556,-0.915
0.4083333333333333,-0.93
0.4111111111111111,-0.935
0.41388888888888886,-0.945
0.4166666666666667,-0.92
0.41944444444444445,-0.915
0.4222222222222222,-0.905
0.425,-0.9
0.42777777777777776,-0.905
0.4305555555555556,-0.88
0.43333333333333335,-0.875
0.4361111111111111,-0.87
0.4388888888888889,-0.87
0.44166666666666665,-0.88
0.4444444444444444,-0.88
0.44722222222222224,-0.905
0.45,-0.9
0.4527777777777778,-0.91
0.45555555555555555,-0.9
0.4583333333333333,-0.885
0.46111111111111114,-0.865
0.4638888888888889,-0.85
0.4666666666666667,-0.85
0.46944444444444444,-0.845
0.4722222222222222,-0.855
0.475,-0.865
0.4777777777777778,-0.875
0.48055555555555557,-0.89
0.48333333333333334,-0.895
0.4861111111111111,-0.895
0.4888888888888889,-0.89
0.49166666666666664,-0.885
0.49444444444444446,-0.875
0.49722222222222223,-0.875
0.5,-0.86
0.5027777777777778,-0.87
0.5055555555555555,-0.88
0.5083333333333333,-0.89
0.5111111111111111,-0.9
0.5138888888888888,-0.915
0.5166666666666667,-0.93
0.5194444444444445,-0.93
0.5222222222222223,-0.905
0.525,-0.92
0.5277777777777778,-0.88
0.5305555555555556,-0.89
0.5333333333333333,-0.885
0.5361111111111111,-0.905
0.5388888888888889,-0.885
0.5416666666666666,-0.91
0.5444444444444444,-0.9
0.5472222222222223,-0.92
0.55,-0.925
0.5527777777777778,-0.92
0.5555555555555556,-0.925
0.5583333333333333,-0.92
0.5611111111111111,-0.92
0.5638888888888889,-0.905
0.5666666666666667,-0.9
0.5694444444444444,-0.915
0.5722222222222222,-0.92
0.575,-0.935
0.5777777777777777,-0.945
0.5805555555555556,-0.94
0.5833333333333334,-0.965
0.5861111111111111,-0.95
0.5888888888888889,-0.96
0.5916666666666667,-0.94
0.5944444444444444,-0.94
0.5972222222222222,-0.925
0.6,-0.91
0.6027777777777777,-0.915
0.6055555555555555,-0.92
0.6083333333333333,-0.915
0.6111111111111112,-0.92
0.6138888888888889,-0.93
0.6166666666666667,-0.94
0.6194444444444445,-0.94
0.6222222222222222,-0.935
0.625,-0.915
0.6277777777777778,-0.915
0.6305555555555555,-0.905
0.6333333333333333,-0.895
0.6361111111111111,-0.905
0.6388888888888888,-0.9
0.6416666666666667,-0.91
0.6444444444444445,-0.91
0.6472222222222223,-0.91
0.65,-0.925
0.6527777777777778,-0.91
0.6555555555555556,-0.89
0.6583333333333333,-0.865
0.6611111111111111,-0.845
0.6638888888888889,-0.82
0.6666666666666666,-0.8
0.6694444444444444,-0.79
0.6722222222222223,-0.77
0.675,-0.77
0.6777777777777778,-0.755
0.6805555555555556,-0.745
0.6833333333333333,-0.72
0.6861111111111111,-0.675
0.6888888888888889,-0.64
0.6916666666666667,-0.605
0.6944444444444444,-0.58
0.6972222222222222,-0.55
0.7,-0.56
0.7027777777777777,-0.575
0.7055555555555556,-0.61
0.7083333333333334,-0.605
0.7111111111111111,-0.625
0.7138888888888889,-0.655
0.7166666666666667,-0.665
0.7194444444444444,-0.705
0.7222222222222222,-0.745
0.725,-0.78
0.7277777777777777,-0.85
0.7305555555555555,-0.875
0.7333333333333333,-0.91
0.7361111111111112,-0.91
0.7388888888888889,-0.925
0.7416666666666667,-0.935
0.7444444444444445,-0.95
0.7472222222222222,-0.945
0.75,-0.95
0.7527777777777778,-0.955
0.7555555555555555,-0.96
0.7583333333333333,-0.96
0.7611111111111111,-0.945
0.7638888888888888,-0.935
0.7666666666666667,-0.94
0.7694444444444445,-0.945
0.7722222222222223,-0.95
0.775,-0.955
0.7777777777777778,-0.965
0.7805555555555556,-0.98
0.7833333333333333,-0.97
0.7861111111111111,-0.975
0.7888888888888889,-0.975
0.7916666666666666,-0.95
0.7944444444444444,-0.955
0.7972222222222223,-0.945
0.8,-0.93
0.8027777777777778,-0.945
0.8055555555555556,-0.97
0.8083333333333333,-0.955
0.8111111111111111,-0.95
0.8138888888888889,-0.955
0.8166666666666667,-0.965
0.8194444444444444,-0.975
0.8222222222222222,-0.99
0.825,-1.005
0.8277777777777777,-1.0
0.8305555555555556,-0.97
0.8333333333333334,-0.89
0.8361111111111111,-0.755
0.8388888888888889,-0.57
0.8416666666666667,-0.335
0.8444444444444444,-0.04
0.8472222222222222,0.32
0.85,0.665
0.8527777777777777,0.945
0.8555555555555555,1.115
0.8583333333333333,1.205
0.8611111111111112,1.175
0.8638888888888889,1.04
0.8666666666666667,0.82
0.8694444444444445,0.45
0.8722222222222222,-0.03
0.875,-0.535
0.8777777777777778,-0.905
0.8805555555555555,-1.085
0.8833333333333333,-1.07
0.8861111111111111,-0.965
0.8888888888888888,-0.83
0.8916666666666667,-0.735
0.8944444444444445,-0.69
0.8972222222222223,-0.71
0.9,-0.755
0.9027777777777778,-0.825
0.9055555555555556,-0.88
0.9083333333333333,-0.92
0.9111111111111111,-0.955
0.9138888888888889,-0.955
0.9166666666666666,-0.965
0.9194444444444444,-0.955
0.9222222222222223,-0.94
0.925,-0.935
0.9277777777777778,-0.945
0.9305555555555556,-0.93
0.9333333333333333,-0.96
0.9361111111111111,-0.945
0.9388888888888889,-0.965
0.9416666666666667,-0.97
0.9444444444444444,-0.97
0.9472222222222222,-0.98
0.95,-0.98
0.9527777777777777,-0.985
0.9555555555555556,-0.98
0.9583333333333334,-0.98
0.9611111111111111,-0.97
0.9638888888888889,-0.965
0.9666666666666667,-0.975
0.9694444444444444,-0.97
0.9722222222222222,-0.98
0.975,-0.975
0.9777777777777777,-0.985
0.9805555555555555,-1.0
0.9833333333333333,-1.015
0.9861111111111112,-0.99
0.9888888888888889,-0.97
0.9916666666666667,-0.97
0.9944444444444445,-0.96
0.9972222222222222,-0.96
1.0,-0.94
1.0027777777777778,-0.95
1.0055555555555555,-0.95
1.0083333333333333,-0.975
1.011111111111111,-0.97
1.0138888888888888,-0.965
1.0166666666666666,-0.95
1.0194444444444444,-0.96
1.0222222222222221,-0.955
1.025,-0.93
1.0277777777777777,-0.935
1.0305555555555554,-0.915
1.0333333333333334,-0.905
1.0361111111111112,-0.905
1.038888888888889,-0.9
1.0416666666666667,-0.91
1.0444444444444445,-0.91
1.0472222222222223,-0.92
1.05,-0.9
1.0527777777777778,-0.895
1.0555555555555556,-0.885
1.0583333333333333,-0.885
1.0611111111111111,-0.865
1.0638888888888889,-0.835
1.0666666666666667,-0.825
1.0694444444444444,-0.82
1.0722222222222222,-0.81
1.075,-0.815
1.0777777777777777,-0.805
1.0805555555555555,-0.81
1.0833333333333333,-0.8
1.086111111111111,-0.78
1.0888888888888888,-0.775
1.0916666666666666,-0.745
1.0944444444444446,-0.725
1.0972222222222223,-0.685
1.1,-0.665
1.1027777777777779,-0.65
1.1055555555555556,-0.65
1.1083333333333334,-0.65
1.1111111111111112,-0.65
1.113888888888889,-0.61
1.1166666666666667,-0.59
1.1194444444444445,-0.555
1.1222222222222222,-0.535
1.125,-0.5
1.1277777777777778,-0.485
1.1305555555555555,-0.455
1.1333333333333333,-0.43
1.136111111111111,-0.405
1.1388888888888888,-0.405
1.1416666666666666,-0.395
1.1444444444444444,-0.395
1.1472222222222221,-0.385
1.15,-0.375
1.1527777777777777,-0.37
1.1555555555555554,-0.36
1.1583333333333334,-0.34
1.1611111111111112,-0.335
1.163888888888889,-0.305
1.1666666666666667,-0.31
1.1694444444444445,-0.345
1.1722222222222223,-0.365
1.175,-0.38
1.1777777777777778,-0.405
1.1805555555555556,-0.425
1.1833333333333333,-0.455
1.1861111111111111,-0.485
1.1888888888888889,-0.515
1.1916666666666667,-0.535
1.1944444444444444,-0.545
1.1972222222222222,-0.58
1.2,-0.585
1.2027777777777777,-0.625
1.2055555555555555,-0.645
1.2083333333333333,-0.685
1.211111111111111,-0.72
1.2138888888888888,-0.735
1.2166666666666666,-0.765
1.2194444444444446,-0.785
1.2222222222222223,-0.8
1.225,-0.805
1.2277777777777779,-0.805
1.2305555555555556,-0.805
1.2333333333333334,-0.83
1.2361111111111112,-0.825
1.238888888888889,-0.84
1.2416666666666667,-0.87
1.2444444444444445,-0.875
1.2472222222222222,-0.89
1.25,-0.895
1.2527777777777778,-0.89
1.2555555555555555,-0.91
1.2583333333333333,-0.9
1.261111111111111,-0.9
1.2638888888888888,-0.905
1.2666666666666666,-0.89
1.2694444444444444,-0.91
1.2722222222222221,-0.9
1.275,-0.91
1.2777777777777777,-0.915
1.2805555555555554,-0.915
1.2833333333333334,-0.93
1.2861111111111112,-0.925
1.288888888888889,-0.91
1.2916666666666667,-0.895
1.2944444444444445,-0.89
1.2972222222222223,-0.87
1.3,-0.865
1.3027777777777778,-0.87
1.3055555555555556,-0.875
1.3083333333333333,-0.885
1.3111111111111111,-0.89
1.3138888888888889,-0.89
1.3166666666666667,-0.87
1.3194444444444444,-0.855
1.3222222222222222,-0.865
1.325,-0.85
1.3277777777777777,-0.855
1.3305555555555555,-0.855
1.3333333333333333,-0.85
1.336111111111111,-0.855
1.3388888888888888,-0.85
1.3416666666666666,-0.86
1.3444444444444446,-0.85
1.3472222222222223,-0.83
1.35,-0.77
1.3527777777777779,-0.685
1.3555555555555556,-0.55
1.3583333333333334,-0.41
1.3611111111111112,-0.245
1.363888888888889,-0.1
1.3666666666666667,0.075
1.3694444444444445,0.235
1.3722222222222222,0.445
1.375,0.63
1.3777777777777778,0.835
1.3805555555555555,1.06
1.3833333333333333,1.26
1.386111111111111,1.44
1.3888888888888888,1.61
1.3916666666666666,1.735
1.3944444444444444,1.825
1.3972222222222221,1.885
1.4,1.91
1.4027777777777777,1.905
1.4055555555555554,1.875
1.4083333333333334,1.825
1.4111111111111112,1.76
1.413888888888889,1.675
1.4166666666666667,1.575
1.4194444444444445,1.53
1.4222222222222223,1.51
1.425,1.55
1.4277777777777778,1.56
1.4305555555555556,1.54
1.4333333333333333,1.535
1.4361111111111111,1.445
1.4388888888888889,1.335
1.4416666666666667,1.2
1.4444444444444444,1.065
1.4472222222222222,0.89
1.45,0.71
1.4527777777777777,0.48
1.4555555555555555,0.18
1.4583333333333333,-0.175
1.461111111111111,-0.52
1.4638888888888888,-0.81
1.4666666666666666,-0.975
1.4694444444444446,-1.045
1.4722222222222223,-1.065
1.475,-1.05
1.4777777777777779,-1.05
1.4805555555555556,-1.065
1.4833333333333334,-1.11
1.4861111111111112,-1.155
1.488888888888889,-1.22
1.4916666666666667,-1.245
1.4944444444444445,-1.27
1.4972222222222222,-1.27
1.5,-1.28
1.5027777777777778,-1.3
1.5055555555555555,-1.32
1.5083333333333333,-1.33
1.511111111111111,-1.365
1.5138888888888888,-1.37
1.5166666666666666,-1.39
1.5194444444444444,-1.415
1.5222222222222221,-1.405
1.525,-1.425
1.5277777777777777,-1.425
1.5305555555555554,-1.445
1.5333333333333334,-1.435
1.5361111111111112,-1.445
1.538888888888889,-1.48
1.5416666666666667,-1.49
1.5444444444444445,-1.505
1.5472222222222223,-1.54
1.55,-1.535
1.5527777777777778,-1.555
1.5555555555555556,-1.545
1.5583333333333333,-1.565
1.5611111111111111,-1.565
1.5638888888888889,-1.57
1.5666666666666667,-1.57
1.5694444444444444,-1.575
1.5722222222222222,-1.585
1.575,-1.585
1.5777777777777777,-1.59
1.5805555555555555,-1.6
1.5833333333333333,-1.615
1.586111111111111,-1.62
1.5888888888888888,-1.63
1.5916666666666666,-1.63
1.5944444444444446,-1.645
1.5972222222222223,-1.615
1.6,-1.61
1.6027777777777779,-1.62
1.6055555555555556,-1.615
1.6083333333333334,-1.61
1.6111111111111112,-1.605
1.613888888888889,-1.63
1.6166666666666667,-1.64
1.6194444444444445,-1.675
1.6222222222222222,-1.7
1.625,-1.725
1.6277777777777778,-1.745
1.6305555555555555,-1.755
1.6333333333333333,-1.78
1.636111111111111,-1.815
1.6388888888888888,-1.885
1.6416666666666666,-1.92
1.6444444444444444,-1.985
1.6472222222222221,-2.055
1.65,-2.12
1.6527777777777777,-2.18
1.6555555555555554,-2.225
1.6583333333333334,-2.25
1.6611111111111112,-2.27
1.663888888888889,-2.295
1.6666666666666667,-2.3
1.6694444444444445,-2.305
1.6722222222222223,-2.31
1.675,-2.315
1.6777777777777778,-2.305
1.6805555555555556,-2.295
1.6833333333333333,-2.285
1.6861111111111111,-2.285
1.6888888888888889,-2.25
1.6916666666666667,-2.22
1.6944444444444444,-2.18
1.6972222222222222,-2.145
1.7,-2.125
1.7027777777777777,-2.095
1.7055555555555555,-2.05
1.7083333333333333,-2.015
1.711111111111111,-1.995
1.7138888888888888,-1.94
1.7166666666666666,-1.88
1.7194444444444446,-1.825
1.7222222222222223,-1.77
1.725,-1.7
1.7277777777777779,-1.63
1.7305555555555556,-1.575
1.7333333333333334,-1.515
1.7361111111111112,-1.485
1.738888888888889,-1.45
1.7416666666666667,-1.42
1.7444444444444445,-1.4
1.7472222222222222,-1.37
1.75,-1.33
1.7527777777777778,-1.31
1.7555555555555555,-1.285
1.7583333333333333,-1.255
1.761111111111111,-1.23
1.7638888888888888,-1.23
1.7666666666666666,-1.195
1.7694444444444444,-1.195
1.7722222222222221,-1.195
1.775,-1.21
1.7777777777777777,-1.22
1.7805555555555554,-1.235
1.7833333333333334,-1.23
1.7861111111111112,-1.22
1.788888888888889,-1.225
1.7916666666666667,-1.215
1.7944444444444445,-1.21
1.7972222222222223,-1.175
1.8,-1.18
1.8027777777777778,-1.185
1.8055555555555556,-1.21
1.8083333333333333,-1.19
1.8111111111111111,-1.2
1.8138888888888889,-1.205
1.8166666666666667,-1.21
1.8194444444444444,-1.21
1.8222222222222222,-1.21
1.825,-1.205
1.8277777777777777,-1.185
1.8305555555555555,-1.195
1.8333333333333333,-1.16
1.836111111111111,-1.175
1.8388888888888888,-1.165
1.8416666666666666,-1.17
1.8444444444444446,-1.17
1.8472222222222223,-1.175
1.85,-1.175
1.8527777777777779,-1.165
1.8555555555555556,-1.175
1.8583333333333334,-1.155
1.8611111111111112,-1.145
1.863888888888889,-1.16
1.8666666666666667,-1.15
1.8694444444444445,-1.14
1.8722222222222222,-1.155
1.875,-1.155
1.8777777777777778,-1.15
1.8805555555555555,-1.14
1.8833333333333333,-1.145
1.886111111111111,-1.155
1.8888888888888888,-1.16
1.8916666666666666,-1.135
1.8944444444444444,-1.135
1.8972222222222221,-1.12
1.9,-1.125
1.9027777777777777,-1.13
1.9055555555555554,-1.125
1.9083333333333334,-1.13
1.9111111111111112,-1.135
1.913888888888889,-1.145
1.9166666666666667,-1.15
1.9194444444444445,-1.145
1.9222222222222223,-1.135
1.925,-1.125
1.9277777777777778,-1.12
1.9305555555555556,-1.1
1.9333333333333333,-1.095
1.9361111111111111,-1.1
1.9388888888888889,-1.1
1.9416666666666667,-1.11
1.9444444444444444,-1.12
1.9472222222222222,-1.135
1.95,-1.135
1.9527777777777777,-1.135
1.9555555555555555,-1.125
1.9583333333333333,-1.125
1.961111111111111,-1.095
1.9638888888888888,-1.11
1.9666666666666666,-1.095
1.9694444444444446,-1.12
1.9722222222222223,-1.14
1.975,-1.115
1.9777777777777779,-1.13
1.9805555555555556,-1.1
1.9833333333333334,-1.12
1.9861111111111112,-1.13
1.988888888888889,-1.13
1.9916666666666667,-1.12
1.9944444444444445,-1.11
1.9972222222222222,-1.1
2.0,-1.09
2.0027777777777778,-1.1
2.0055555555555555,-1.095
2.0083333333333333,-1.095
2.011111111111111,-1.1
2.013888888888889,-1.125
2.0166666666666666,-1.12
2.0194444444444444,-1.13
2.022222222222222,-1.115
2.025,-1.105
2.0277777777777777,-1.1
2.0305555555555554,-1.085
2.033333333333333,-1.075
2.036111111111111,-1.085
2.0388888888888888,-1.09
2.0416666666666665,-1.085
2.0444444444444443,-1.09
2.047222222222222,-1.1
2.05,-1.09
2.0527777777777776,-1.095
2.0555555555555554,-1.1
2.058333333333333,-1.08
2.061111111111111,-1.08
2.063888888888889,-1.085
2.066666666666667,-1.07
2.0694444444444446,-1.08
2.0722222222222224,-1.085
2.075,-1.075
2.077777777777778,-1.07
2.0805555555555557,-1.08
2.0833333333333335,-1.09
2.0861111111111112,-1.085
2.088888888888889,-1.08
2.091666666666667,-1.075
2.0944444444444446,-1.07
2.0972222222222223,-1.065
2.1,-1.055
2.102777777777778,-1.05
2.1055555555555556,-1.05
2.1083333333333334,-1.06
2.111111111111111,-1.065
2.113888888888889,-1.075
2.1166666666666667,-1.085
2.1194444444444445,-1.085
2.1222222222222222,-1.075
2.125,-1.08
2.1277777777777778,-1.075
2.1305555555555555,-1.075
2.1333333333333333,-1.06
2.136111111111111,-1.06
2.138888888888889,-1.05
2.1416666666666666,-1.055
2.1444444444444444,-1.06
2.147222222222222,-1.07
2.15,-1.075
2.1527777777777777,-1.065
2.1555555555555554,-1.07
2.158333333333333,-1.07
2.161111111111111,-1.055
2.1638888888888888,-1.05
2.1666666666666665,-1.05
2.1694444444444443,-1.045
2.172222222222222,-1.055
2.175,-1.055
2.1777777777777776,-1.06
2.1805555555555554,-1.06
2.183333333333333,-1.065
2.186111111111111,-1.07
2.188888888888889,-1.07
2.191666666666667,-1.075
2.1944444444444446,-1.065
2.1972222222222224,-1.05
2.2,-1.04
2.202777777777778,-1.04
2.2055555555555557,-1.045
2.2083333333333335,-1.05
2.2111111111111112,-1.055
2.213888888888889,-1.07
2.216666666666667,-1.06
2.2194444444444446,-1.08
2.2222222222222223,-1.08
2.225,-1.07
2.227777777777778,-1.065
2.2305555555555556,-1.055
2.2333333333333334,-1.035
2.236111111111111,-1.04
2.238888888888889,-1.045
2.2416666666666667,-1.035
2.2444444444444445,-1.05
2.2472222222222222,-1.055
2.25,-1.06
2.2527777777777778,-1.055
2.2555555555555555,-1.065
2.2583333333333333,-1.05
2.261111111111111,-1.065
2.263888888888889,-1.055
2.2666666666666666,-1.035
2.2694444444444444,-1.045
2.272222222222222,-1.045
2.275,-1.035
2.2777777777777777,-1.04
2.2805555555555554,-1.04
2.283333333333333,-1.045
2.286111111111111,-1.045
2.2888888888888888,-1.04
2.2916666666666665,-1.045
2.2944444444444443,-1.025
2.297222222222222,-1.01
2.3,-1.005
2.3027777777777776,-1.02
2.3055555555555554,-1.015
2.308333333333333,-1.025
2.311111111111111,-1.03
2.313888888888889,-1.05
2.316666666666667,-1.055
2.3194444444444446,-1.065
2.3222222222222224,-1.045
2.325,-1.02
2.327777777777778,-1.035
2.3305555555555557,-1.025
2.3333333333333335,-1.015
2.3361111111111112,-1.03
2.338888888888889,-1.005
2.341666666666667,-1.02
2.3444444444444446,-1.025
2.3472222222222223,-1.03
2.35,-1.03
2.352777777777778,-1.04
2.3555555555555556,-1.035
2.3583333333333334,-1.035
2.361111111111111,-1.015
2.363888888888889,-1.03
2.3666666666666667,-1.0
2.3694444444444445,-0.995
2.3722222222222222,-0.995
2.375,-1.005
2.3777777777777778,-1.01
2.3805555555555555,-1.035
2.3833333333333333,-1.04
2.386111111111111,-1.045
2.388888888888889,-1.035
2.3916666666666666,-1.03
2.3944444444444444,-1.01
2.397222222222222,-1.015
2.4,-1.0
2.4027777777777777,-1.0
2.4055555555555554,-1.005
2.408333333333333,-1.01
2.411111111111111,-1.02
2.4138888888888888,-1.02
2.4166666666666665,-1.035
2.4194444444444443,-1.05
2.422222222222222,-1.045
2.425,-1.05
2.4277777777777776,-1.045
2.4305555555555554,-1.03
2.433333333333333,-1.01
2.436111111111111,-1.0
2.438888888888889,-1.01
2.441666666666667,-1.01
2.4444444444444446,-1.015
2.4472222222222224,-1.025
2.45,-1.045
2.452777777777778,-1.045
2.4555555555555557,-1.04
2.4583333333333335,-1.02
2.4611111111111112,-1.015
2.463888888888889,-1.015
2.466666666666667,-1.01
2.4694444444444446,-1.01
2.4722222222222223,-1.0
2.475,-0.995
2.477777777777778,-1.01
2.4805555555555556,-1.015
2.4833333333333334,-1.02
2.486111111111111,-1.025
2.488888888888889,-1.02
2.4916666666666667,-1.015
2.4944444444444445,-1.01
2.4972222222222222,-0.985
2.5,-0.98
2.5027777777777778,-0.985
2.5055555555555555,-0.99
2.5083333333333333,-0.995
2.511111111111111,-1.015
2.513888888888889,-1.015
2.5166666666666666,-1.02
2.5194444444444444,-1.01
2.522222222222222,-1.015
2.525,-0.99
2.5277777777777777,-0.985
2.5305555555555554,-0.97
2.533333333333333,-0.95
2.536111111111111,-0.93
2.5388888888888888,-0.93
2.5416666666666665,-0.915
2.5444444444444443,-0.905
2.547222222222222,-0.895
2.55,-0.875
2.5527777777777776,-0.86
2.5555555555555554,-0.865
2.558333333333333,-0.83
2.561111111111111,-0.805
2.563888888888889,-0.78
2.566666666666667,-0.74
2.5694444444444446,-0.7
2.5722222222222224,-0.665
2.575,-0.63
2.577777777777778,-0.625
2.5805555555555557,-0.655
2.5833333333333335,-0.675
2.5861111111111112,-0.705
2.588888888888889,-0.7
2.591666666666667,-0.685
2.5944444444444446,-0.69
2.5972222222222223,-0.705
2.6,-0.72
2.602777777777778,-0.77
2.6055555555555556,-0.82
2.6083333333333334,-0.885
2.611111111111111,-0.955
2.613888888888889,-0.995
2.6166666666666667,-1.02
2.6194444444444445,-1.015
2.6222222222222222,-1.02
2.625,-1.02
2.6277777777777778,-1.015
2.6305555555555555,-0.985
2.6333333333333333,-0.98
2.636111111111111,-1.0
2.638888888888889,-0.995
2.6416666666666666,-1.02
2.6444444444444444,-1.035
2.647222222222222,-1.03
2.65,-1.035
2.6527777777777777,-1.03
2.6555555555555554,-1.03
2.658333333333333,-1.035
2.661111111111111,-1.01
2.6638888888888888,-1.0
2.6666666666666665,-0.99
2.6694444444444443,-0.995
2.672222222222222,-0.995
2.675,-1.015
2.6777777777777776,-1.025
2.6805555555555554,-1.06
2.683333333333333,-1.09
2.686111111111111,-1.08
2.688888888888889,-1.045
2.691666666666667,-0.965
2.6944444444444446,-0.8
2.6972222222222224,-0.575
2.7,-0.27
2.702777777777778,0.085
2.7055555555555557,0.455
2.7083333333333335,0.78
2.7111111111111112,1.03
2.713888888888889,1.145
2.716666666666667,1.14
2.7194444444444446,0.99
2.7222222222222223,0.685
2.725,0.24
2.727777777777778,-0.3
2.7305555555555556,-0.755
2.7333333333333334,-1.04
2.736111111111111,-1.115
2.738888888888889,-1.035
2.7416666666666667,-0.92
2.7444444444444445,-0.815
2.7472222222222222,-0.77
2.75,-0.79
2.7527777777777778,-0.87
2.7555555555555555,-0.915
2.7583333333333333,-0.98
2.761111111111111,-1.0
2.763888888888889,-1.005
2.7666666666666666,-1.005
2.7694444444444444,-1.005
2.772222222222222,-1.015
2.775,-1.02
2.7777777777777777,-1.04
2.7805555555555554,-1.03
2.783333333333333,-1.04
2.786111111111111,-1.06
2.7888888888888888,-1.045
2.7916666666666665,-1.055
2.7944444444444443,-1.045
2.797222222222222,-1.05
2.8,-1.045
2.8027777777777776,-1.03
2.8055555555555554,-1.025
2.808333333333333,-1.045
2.811111111111111,-1.055
2.813888888888889,-1.065
2.816666666666667,-1.07
2.8194444444444446,-1.06
2.8222222222222224,-1.055
2.825,-1.055
2.827777777777778,-1.05
2.8305555555555557,-1.045
2.8333333333333335,-1.025
2.8361111111111112,-1.045
2.838888888888889,-1.065
2.841666666666667,-1.065
2.8444444444444446,-1.06
2.8472222222222223,-1.07
2.85,-1.08
2.852777777777778,-1.07
2.8555555555555556,-1.06
2.8583333333333334,-1.06
2.861111111111111,-1.055
2.863888888888889,-1.035
2.8666666666666667,-1.025
2.8694444444444445,-1.03
2.8722222222222222,-1.025
2.875,-1.04
2.8777777777777778,-1.035
2.8805555555555555,-1.045
2.8833333333333333,-1.04
2.886111111111111,-1.025
2.888888888888889,-1.025
2.8916666666666666,-1.005
2.8944444444444444,-1.01
2.897222222222222,-0.995
2.9,-0.99
2.9027777777777777,-0.985
2.9055555555555554,-0.975
2.908333333333333,-0.985
2.911111111111111,-0.985
2.9138888888888888,-0.985
2.9166666666666665,-0.99
2.9194444444444443,-0.97
2.922222222222222,-0.96
2.925,-0.95
2.9277777777777776,-0.915
2.9305555555555554,-0.91
2.933333333333333,-0.91
2.936111111111111,-0.885
2.938888888888889,-0.885
2.941666666666667,-0.885
2.9444444444444446,-0.875
2.9472222222222224,-0.865
2.95,-0.86
2.952777777777778,-0.85
2.9555555555555557,-0.835
2.9583333333333335,-0.795
2.9611111111111112,-0.785
2.963888888888889,-0.765
2.966666666666667,-0.745
2.9694444444444446,-0.72
2.9722222222222223,-0.71
2.975,-0.695
2.977777777777778,-0.69
2.9805555555555556,-0.675
2.9833333333333334,-0.66
2.986111111111111,-0.65
2.988888888888889,-0.62
2.9916666666666667,-0.62
2.9944444444444445,-0.575
2.9972222222222222,-0.545
3.0,-0.545
3.0027777777777778,-0.535
3.0055555555555555,-0.52
3.0083333333333333,-0.515
3.011111111111111,-0.51
3.013888888888889,-0.505
3.0166666666666666,-0.495
3.0194444444444444,-0.485
3.022222222222222,-0.47
3.025,-0.46
3.0277777777777777,-0.455
3.0305555555555554,-0.45
3.033333333333333,-0.46
3.036111111111111,-0.48
3.0388888888888888,-0.5
3.0416666666666665,-0.525
3.0444444444444443,-0.55
3.047222222222222,-0.57
3.05,-0.595
3.0527777777777776,-0.615
3.0555555555555554,-0.63
3.058333333333333,-0.65
3.061111111111111,-0.675
3.063888888888889,-0.695
3.066666666666667,-0.7
3.0694444444444446,-0.74
3.0722222222222224,-0.765
3.075,-0.78
3.077777777777778,-0.81
3.0805555555555557,-0.81
3.0833333333333335,-0.835
3.0861111111111112,-0.84
3.088888888888889,-0.85
3.091666666666667,-0.85
3.0944444444444446,-0.84
3.0972222222222223,-0.835
3.1,-0.84
3.102777777777778,-0.85
3.1055555555555556,-0.855
3.1083333333333334,-0.875
3.111111111111111,-0.895
3.113888888888889,-0.91
3.1166666666666667,-0.915
3.1194444444444445,-0.915
3.1222222222222222,-0.905
3.125,-0.89
3.1277777777777778,-0.87
3.1305555555555555,-0.88
3.1333333333333333,-0.88
3.136111111111111,-0.875
3.138888888888889,-0.885
3.1416666666666666,-0.89
3.1444444444444444,-0.88
3.147222222222222,-0.895
3.15,-0.9
3.1527777777777777,-0.895
3.1555555555555554,-0.885
3.158333333333333,-0.87
3.161111111111111,-0.86
3.1638888888888888,-0.85
3.1666666666666665,-0.84
3.1694444444444443,-0.85
3.172222222222222,-0.865
3.175,-0.85
3.1777777777777776,-0.86
3.1805555555555554,-0.855
3.183333333333333,-0.86
3.186111111111111,-0.86
3.188888888888889,-0.87
3.191666666666667,-0.85
3.1944444444444446,-0.855
3.1972222222222224,-0.845
3.2,-0.84
3.202777777777778,-0.865
3.2055555555555557,-0.86
3.2083333333333335,-0.855
3.2111111111111112,-0.85
3.213888888888889,-0.855
3.216666666666667,-0.875
3.2194444444444446,-0.875
3.2222222222222223,-0.875
3.225,-0.86
3.227777777777778,-0.845
3.2305555555555556,-0.84
3.2333333333333334,-0.835
3.236111111111111,-0.855
3.238888888888889,-0.865
3.2416666666666667,-0.875
3.2444444444444445,-0.89
3.2472222222222222,-0.9
3.25,-0.89
3.2527777777777778,-0.895
3.2555555555555555,-0.89
3.2583333333333333,-0.9
3.261111111111111,-0.895
3.263888888888889,-0.88
3.2666666666666666,-0.86
3.2694444444444444,-0.885
3.272222222222222,-0.885
3.275,-0.9
3.2777777777777777,-0.905
3.2805555555555554,-0.92
3.283333333333333,-0.925
3.286111111111111,-0.925
3.2888888888888888,-0.91
3.2916666666666665,-0.925
3.2944444444444443,-0.93
3.297222222222222,-0.92
3.3,-0.93
3.3027777777777776,-0.91
3.3055555555555554,-0.93
3.308333333333333,-0.92
3.311111111111111,-0.945
3.313888888888889,-0.955
3.316666666666667,-0.945
3.3194444444444446,-0.955
3.3222222222222224,-0.95
3.325,-0.95
3.327777777777778,-0.94
3.3305555555555557,-0.92
3.3333333333333335,-0.915
3.3361111111111112,-0.925
3.338888888888889,-0.94
3.341666666666667,-0.945
3.3444444444444446,-0.955
3.3472222222222223,-0.96
3.35,-0.95
3.352777777777778,-0.955
3.3555555555555556,-0.955
3.3583333333333334,-0.945
3.361111111111111,-0.955
3.363888888888889,-0.95
3.3666666666666667,-0.94
3.3694444444444445,-0.935
3.3722222222222222,-0.94
3.375,-0.95
3.3777777777777778,-0.96
3.3805555555555555,-0.96
3.3833333333333333,-0.965
3.386111111111111,-0.96
3.388888888888889,-0.965
3.3916666666666666,-0.945
3.3944444444444444,-0.915
3.397222222222222,-0.93
3.4,-0.935
3.4027777777777777,-0.945
3.4055555555555554,-0.93
3.408333333333333,-0.955
3.411111111111111,-0.945
3.4138888888888888,-0.945
3.4166666666666665,-0.955
3.4194444444444443,-0.935
3.422222222222222,-0.95
3.425,-0.945
3.4277777777777776,-0.935
3.4305555555555554,-0.925
3.433333333333333,-0.92
3.436111111111111,-0.92
3.438888888888889,-0.91
3.441666666666667,-0.915
3.4444444444444446,-0.92
3.4472222222222224,-0.915
3.45,-0.905
3.452777777777778,-0.89
3.4555555555555557,-0.85
3.4583333333333335,-0.83
3.4611111111111112,-0.81
3.463888888888889,-0.79
3.466666666666667,-0.77
3.4694444444444446,-0.765
3.4722222222222223,-0.76
3.475,-0.735
3.477777777777778,-0.725
3.4805555555555556,-0.71
3.4833333333333334,-0.67
3.486111111111111,-0.635
3.488888888888889,-0.6
3.4916666666666667,-0.585
3.4944444444444445,-0.58
3.4972222222222222,-0.59
3.5,-0.595
3.5027777777777778,-0.61
3.5055555555555555,-0.615
3.5083333333333333,-0.615
3.511111111111111,-0.62
3.513888888888889,-0.65
3.5166666666666666,-0.685
3.5194444444444444,-0.73
3.522222222222222,-0.765
3.525,-0.815
3.5277777777777777,-0.865
3.5305555555555554,-0.895
3.533333333333333,-0.92
3.536111111111111,-0.94
3.5388888888888888,-0.945
3.5416666666666665,-0.96
3.5444444444444443,-0.96
3.547222222222222,-0.965
3.55,-0.97
3.5527777777777776,-0.975
3.5555555555555554,-0.965
3.558333333333333,-0.96
3.561111111111111,-0.95
3.563888888888889,-0.96
3.566666666666667,-0.96
3.5694444444444446,-0.96
3.5722222222222224,-0.96
3.575,-0.965
3.577777777777778,-0.97
3.5805555555555557,-0.97
3.5833333333333335,-0.98
3.5861111111111112,-0.97
3.588888888888889,-0.97
3.591666666666667,-0.97
3.5944444444444446,-0.95
3.5972222222222223,-0.93
3.6,-0.945
3.602777777777778,-0.925
3.6055555555555556,-0.93
3.6083333333333334,-0.945
3.611111111111111,-0.945
3.613888888888889,-0.98
3.6166666666666667,-1.02
3.6194444444444445,-1.04
3.6222222222222222,-1.015
3.625,-0.96
3.6277777777777778,-0.86
3.6305555555555555,-0.695
3.6333333333333333,-0.48
3.636111111111111,-0.225
3.638888888888889,0.09
3.6416666666666666,0.395
3.6444444444444444,0.715
3.647222222222222,0.955
3.65,1.115
3.6527777777777777,1.17
3.6555555555555554,1.165
3.658333333333333,1.095
3.661111111111111,0.925
3.6638888888888888,0.64
3.6666666666666665,0.23
3.6694444444444443,-0.265
3.672222222222222,-0.705
3.675,-1.01
3.6777777777777776,-1.085
3.6805555555555554,-1.05
3.683333333333333,-0.9
3.686111111111111,-0.77
3.688888888888889,-0.71
3.691666666666667,-0.7
3.6944444444444446,-0.72
3.6972222222222224,-0.77
3.7,-0.845
3.702777777777778,-0.905
3.7055555555555557,-0.915
3.7083333333333335,-0.925
3.7111111111111112,-0.935
3.713888888888889,-0.945
3.716666666666667,-0.945
3.7194444444444446,-0.94
3.7222222222222223,-0.94
3.725,-0.935
3.727777777777778,-0.935
3.7305555555555556,-0.925
3.7333333333333334,-0.935
3.736111111111111,-0.945
3.738888888888889,-0.95
3.7416666666666667,-0.955
3.7444444444444445,-0.965
3.7472222222222222,-0.975
3.75,-1.0
3.7527777777777778,-0.985
3.7555555555555555,-0.98
3.7583333333333333,-0.985
3.761111111111111,-0.97
3.763888888888889,-0.965
3.7666666666666666,-0.965
3.7694444444444444,-0.975
3.772222222222222,-0.98
3.775,-0.97
3.7777777777777777,-0.97
3.7805555555555554,-0.98
3.783333333333333,-0.99
3.786111111111111,-0.965
3.7888888888888888,-0.97
3.7916666666666665,-0.96
3.7944444444444443,-0.945
3.797222222222222,-0.94
3.8,-0.94
3.8027777777777776,-0.945
3.8055555555555554,-0.945
3.808333333333333,-0.95
3.811111111111111,-0.96
3.813888888888889,-0.96
3.816666666666667,-0.96
3.8194444444444446,-0.95
3.8222222222222224,-0.945
3.825,-0.945
3.827777777777778,-0.93
3.8305555555555557,-0.91
3.8333333333333335,-0.91
3.8361111111111112,-0.91
3.838888888888889,-0.925
3.841666666666667,-0.91
3.8444444444444446,-0.92
3.8472222222222223,-0.935
3.85,-0.92
3.852777777777778,-0.915
3.8555555555555556,-0.905
3.8583333333333334,-0.88
3.861111111111111,-0.87
3.863888888888889,-0.86
3.8666666666666667,-0.85
3.8694444444444445,-0.865
3.8722222222222222,-0.855
3.875,-0.835
3.8777777777777778,-0.84
3.8805555555555555,-0.825
3.8833333333333333,-0.81
3.886111111111111,-0.815
3.888888888888889,-0.78
3.8916666666666666,-0.785
3.8944444444444444,-0.755
3.897222222222222,-0.735
3.9,-0.71
3.9027777777777777,-0.71
3.9055555555555554,-0.705
3.908333333333333,-0.675
3.911111111111111,-0.67
3.9138888888888888,-0.65
3.9166666666666665,-0.645
3.9194444444444443,-0.625
3.922222222222222,-0.605
3.925,-0.59
3.9277777777777776,-0.565
3.9305555555555554,-0.535
3.933333333333333,-0.51
3.936111111111111,-0.5
3.938888888888889,-0.485
3.941666666666667,-0.485
3.9444444444444446,-0.475
3.9472222222222224,-0.47
3.95,-0.475
3.952777777777778,-0.44
3.9555555555555557,-0.425
3.9583333333333335,-0.4
3.9611111111111112,-0.39
3.963888888888889,-0.365
3.966666666666667,-0.365
3.9694444444444446,-0.355
3.9722222222222223,-0.35
3.975,-0.35
3.977777777777778,-0.36
3.9805555555555556,-0.37
3.9833333333333334,-0.39
3.986111111111111,-0.395
3.988888888888889,-0.41
3.9916666666666667,-0.425
3.9944444444444445,-0.44
3.9972222222222222,-0.45
4.0,-0.49
4.002777777777778,-0.51
4.0055555555555555,-0.55
4.008333333333334,-0.595
4.011111111111111,-0.62
4.013888888888889,-0.655
4.016666666666667,-0.68
4.019444444444445,-0.7
4.022222222222222,-0.715
4.025,-0.745
4.027777777777778,-0.745
4.030555555555556,-0.765
4.033333333333333,-0.775
4.036111111111111,-0.79
4.038888888888889,-0.8
4.041666666666667,-0.83
4.044444444444444,-0.84
4.0472222222222225,-0.85
4.05,-0.87
4.052777777777778,-0.88
4.055555555555555,-0.89
4.058333333333334,-0.895
4.061111111111111,-0.89
4.063888888888889,-0.87
4.066666666666666,-0.875
4.069444444444445,-0.89
4.072222222222222,-0.885
4.075,-0.885
4.0777777777777775,-0.91
4.080555555555556,-0.92
4.083333333333333,-0.915
4.086111111111111,-0.925
4.088888888888889,-0.92
4.091666666666667,-0.91
4.094444444444444,-0.91
4.097222222222222,-0.9
4.1,-0.9
4.102777777777778,-0.9
4.105555555555555,-0.915
4.108333333333333,-0.92
4.111111111111111,-0.925
4.113888888888889,-0.93
4.116666666666666,-0.925
4.1194444444444445,-0.925
4.122222222222222,-0.915
4.125,-0.9
4.127777777777778,-0.88
4.1305555555555555,-0.88
4.133333333333334,-0.865
4.136111111111111,-0.865
4.138888888888889,-0.89
4.141666666666667,-0.89
4.144444444444445,-0.9
4.147222222222222,-0.92
4.15,-0.9
4.152777777777778,-0.89
4.155555555555556,-0.89
4.158333333333333,-0.89
4.161111111111111,-0.875
4.163888888888889,-0.88
4.166666666666667,-0.875
4.169444444444444,-0.86
4.1722222222222225,-0.86
4.175,-0.88
4.177777777777778,-0.88
4.180555555555555,-0.9
4.183333333333334,-0.895
4.186111111111111,-0.92
4.188888888888889,-0.905
4.191666666666666,-0.89
4.194444444444445,-0.87
4.197222222222222,-0.88
4.2,-0.875
4.2027777777777775,-0.885
4.205555555555556,-0.89
4.208333333333333,-0.905
4.211111111111111,-0.905
4.213888888888889,-0.9
4.216666666666667,-0.915
4.219444444444444,-0.92
4.222222222222222,-0.92
4.225,-0.905
4.227777777777778,-0.915
4.230555555555555,-0.915
4.233333333333333,-0.89
4.236111111111111,-0.925
4.238888888888889,-0.925
4.241666666666666,-0.93
4.2444444444444445,-0.93
4.247222222222222,-0.935
4.25,-0.945
4.252777777777778,-0.935
4.2555555555555555,-0.925
4.258333333333334,-0.93
4.261111111111111,-0.92
4.263888888888889,-0.92
4.266666666666667,-0.91
4.269444444444445,-0.91
4.272222222222222,-0.93
4.275,-0.945
4.277777777777778,-0.955
4.280555555555556,-0.96
4.283333333333333,-0.965
4.286111111111111,-0.955
4.288888888888889,-0.96
4.291666666666667,-0.945
4.294444444444444,-0.94
4.2972222222222225,-0.935
4.3,-0.94
4.302777777777778,-0.94
4.305555555555555,-0.93
4.308333333333334,-0.945
4.311111111111111,-0.955
4.313888888888889,-0.955
4.316666666666666,-0.965
4.319444444444445,-0.95
4.322222222222222,-0.955
4.325,-0.95
4.3277777777777775,-0.96
4.330555555555556,-0.945
4.333333333333333,-0.95
4.336111111111111,-0.955
4.338888888888889,-0.945
4.341666666666667,-0.955
4.344444444444444,-0.965
4.347222222222222,-0.985
4.35,-0.99
4.352777777777778,-0.965
4.355555555555555,-0.965
4.358333333333333,-0.96
4.361111111111111,-0.955
4.363888888888889,-0.96
4.366666666666666,-0.94
4.3694444444444445,-0.945
4.372222222222222,-0.94
4.375,-0.94
4.377777777777778,-0.93
4.3805555555555555,-0.94
4.383333333333334,-0.92
4.386111111111111,-0.92
4.388888888888889,-0.9
4.391666666666667,-0.885
4.394444444444445,-0.84
4.397222222222222,-0.835
4.4,-0.815
4.402777777777778,-0.79
4.405555555555556,-0.8
4.408333333333333,-0.785
4.411111111111111,-0.75
4.413888888888889,-0.735
4.416666666666667,-0.69
4.419444444444444,-0.65
4.4222222222222225,-0.65
4.425,-0.64
4.427777777777778,-0.64
4.430555555555555,-0.645
4.433333333333334,-0.64
4.436111111111111,-0.65
4.438888888888889,-0.665
4.441666666666666,-0.66
4.444444444444445,-0.67
4.447222222222222,-0.72
4.45,-0.735
4.4527777777777775,-0.785
4.455555555555556,-0.83
4.458333333333333,-0.885
4.461111111111111,-0.93
4.463888888888889,-0.945
4.466666666666667,-0.96
4.469444444444444,-0.975
4.472222222222222,-0.975
4.475,-1.0
4.477777777777778,-1.02
4.480555555555555,-1.015
4.483333333333333,-1.015
4.486111111111111,-1.02
4.488888888888889,-1.015
4.491666666666666,-1.01
4.4944444444444445,-1.01
4.497222222222222,-1.01
4.5,-1.01
4.502777777777778,-1.015
4.5055555555555555,-1.01
4.508333333333334,-1.015
4.511111111111111,-1.035
4.513888888888889,-1.035
4.516666666666667,-1.03
4.519444444444445,-1.04
4.522222222222222,-1.04
4.525,-1.04
4.527777777777778,-1.015
4.530555555555556,-1.01
4.533333333333333,-1.005
4.536111111111111,-0.99
4.538888888888889,-0.995
4.541666666666667,-1.0
4.544444444444444,-1.01
4.5472222222222225,-1.04
4.55,-1.045
4.552777777777778,-1.075
4.555555555555555,-1.095
4.558333333333334,-1.075
4.561111111111111,-0.995
4.563888888888889,-0.87
4.566666666666666,-0.68
4.569444444444445,-0.43
4.572222222222222,-0.105
4.575,0.255
4.5777777777777775,0.59
4.580555555555556,0.88
4.583333333333333,1.055
4.586111111111111,1.11
4.588888888888889,1.06
4.591666666666667,0.91
4.594444444444444,0.615
4.597222222222222,0.195
4.6,-0.295
4.602777777777778,-0.76
4.605555555555555,-1.07
4.608333333333333,-1.185
4.611111111111111,-1.135
4.613888888888889,-1.005
4.616666666666666,-0.88
4.6194444444444445,-0.815
4.622222222222222,-0.795
4.625,-0.84
4.627777777777778,-0.885
4.6305555555555555,-0.945
4.633333333333334,-0.99
4.636111111111111,-1.01
4.638888888888889,-1.025
4.641666666666667,-1.02
4.644444444444445,-1.035
4.647222222222222,-1.04
4.65,-1.055
4.652777777777778,-1.055
4.655555555555556,-1.055
4.658333333333333,-1.05
4.661111111111111,-1.045
4.663888888888889,-1.045
4.666666666666667,-1.04
4.669444444444444,-1.055
4.6722222222222225,-1.05
4.675,-1.055
4.677777777777778,-1.065
4.680555555555555,-1.08
4.683333333333334,-1.07
4.686111111111111,-1.075
4.688888888888889,-1.06
4.691666666666666,-1.08
4.694444444444445,-1.07
4.697222222222222,-1.07
4.7,-1.065
4.7027777777777775,-1.07
4.705555555555556,-1.065
4.708333333333333,-1.06
4.711111111111111,-1.065
4.713888888888889,-1.075
4.716666666666667,-1.09
4.719444444444444,-1.075
4.722222222222222,-1.07
4.725,-1.075
4.727777777777778,-1.055
4.730555555555555,-1.04
4.733333333333333,-1.035
4.736111111111111,-1.045
4.738888888888889,-1.055
4.741666666666666,-1.055
4.7444444444444445,-1.06
4.747222222222222,-1.06
4.75,-1.08
4.752777777777778,-1.055
4.7555555555555555,-1.06
4.758333333333334,-1.035
4.761111111111111,-1.015
4.763888888888889,-1.015
4.766666666666667,-1.0
4.769444444444445,-0.995
4.772222222222222,-1.005
4.775,-1.01
4.777777777777778,-1.015
4.780555555555556,-1.01
4.783333333333333,-1.005
4.786111111111111,-0.985
4.788888888888889,-0.975
4.791666666666667,-0.96
4.794444444444444,-0.94
4.7972222222222225,-0.915
4.8,-0.91
4.802777777777778,-0.905
4.805555555555555,-0.9
4.808333333333334,-0.895
4.811111111111111,-0.88
4.813888888888889,-0.88
4.816666666666666,-0.89
4.819444444444445,-0.88
4.822222222222222,-0.85
4.825,-0.815
4.8277777777777775,-0.785
4.830555555555556,-0.75
4.833333333333333,-0.735
4.836111111111111,-0.715
4.838888888888889,-0.705
4.841666666666667,-0.705
4.844444444444444,-0.69
4.847222222222222,-0.685
4.85,-0.67
4.852777777777778,-0.66
4.855555555555555,-0.63
4.858333333333333,-0.635
4.861111111111111,-0.59
4.863888888888889,-0.56
4.866666666666666,-0.555
4.8694444444444445,-0.53
4.872222222222222,-0.52
4.875,-0.52
4.877777777777778,-0.51
4.8805555555555555,-0.51
4.883333333333334,-0.51
4.886111111111111,-0.5
4.888888888888889,-0.49
4.891666666666667,-0.48
4.894444444444445,-0.47
4.897222222222222,-0.465
4.9,-0.46
4.902777777777778,-0.48
4.905555555555556,-0.495
4.908333333333333,-0.53
4.911111111111111,-0.545
4.913888888888889,-0.585
4.916666666666667,-0.605
4.919444444444444,-0.635
4.9222222222222225,-0.65
4.925,-0.67
4.927777777777778,-0.71
4.930555555555555,-0.72
4.933333333333334,-0.745
4.936111111111111,-0.775
4.938888888888889,-0.815
4.941666666666666,-0.84
4.944444444444445,-0.865
4.947222222222222,-0.9
4.95,-0.92
4.9527777777777775,-0.92
4.955555555555556,-0.945
4.958333333333333,-0.945
4.961111111111111,-0.96
4.963888888888889,-0.975
4.966666666666667,-0.975
4.969444444444444,-0.99
4.972222222222222,-1.005
4.975,-1.005
4.977777777777778,-1.03
4.980555555555555,-1.045
4.983333333333333,-1.065
4.986111111111111,-1.06
4.988888888888889,-1.045
4.991666666666666,-1.035
4.9944444444444445,-1.03
4.997222222222222,-1.04
5.0,-1.03
5.002777777777778,-1.05
5.0055555555555555,-1.06
5.008333333333334,-1.06
5.011111111111111,-1.06
5.013888888888889,-1.07
5.016666666666667,-1.07
5.019444444444445,-1.065
5.022222222222222,-1.06
5.025,-1.045
5.027777777777778,-1.035
5.030555555555556,-1.03
5.033333333333333,-1.015
5.036111111111111,-1.01
5.038888888888889,-1.015
5.041666666666667,-1.04
5.044444444444444,-1.04
5.0472222222222225,-1.03
5.05,-1.035
5.052777777777778,-1.05
5.055555555555555,-1.025
5.058333333333334,-1.01
5.061111111111111,-1.02
5.063888888888889,-1.005
5.066666666666666,-0.995
5.069444444444445,-0.98
5.072222222222222,-0.99
5.075,-1.005
5.0777777777777775,-1.01
5.080555555555556,-1.015
5.083333333333333,-1.005
5.086111111111111,-1.015
5.088888888888889,-1.01
5.091666666666667,-0.995
5.094444444444444,-0.985
5.097222222222222,-0.975
5.1,-0.975
5.102777777777778,-0.965
5.105555555555555,-0.965
5.108333333333333,-0.995
5.111111111111111,-0.995
5.113888888888889,-1.0
5.116666666666666,-1.005
5.1194444444444445,-1.02
5.122222222222222,-1.005
5.125,-1.005
5.127777777777778,-1.0
5.1305555555555555,-0.975
5.133333333333334,-0.985
5.136111111111111,-1.005
5.138888888888889,-1.0
5.141666666666667,-1.02
5.144444444444445,-1.02
5.147222222222222,-1.03
5.15,-1.01
5.152777777777778,-1.01
5.155555555555556,-1.015
5.158333333333333,-1.01
5.161111111111111,-1.0
5.163888888888889,-0.995
5.166666666666667,-1.01
5.169444444444444,-1.005
5.1722222222222225,-1.015
5.175,-1.03
5.177777777777778,-1.025
5.180555555555555,-1.045
5.183333333333334,-1.06
5.186111111111111,-1.05
5.188888888888889,-1.04
5.191666666666666,-1.04
5.194444444444445,-1.03
5.197222222222222,-1.035
5.2,-1.015
5.2027777777777775,-1.03
5.205555555555556,-1.035
5.208333333333333,-1.04
5.211111111111111,-1.035
5.213888888888889,-1.05
5.216666666666667,-1.06
5.219444444444444,-1.075
5.222222222222222,-1.06
5.225,-1.05
5.227777777777778,-1.045
5.230555555555555,-1.04
5.233333333333333,-1.03
5.236111111111111,-1.03
5.238888888888889,-1.035
5.241666666666666,-1.045
5.2444444444444445,-1.05
5.247222222222222,-1.06
5.25,-1.065
5.252777777777778,-1.075
5.2555555555555555,-1.06
5.258333333333334,-1.05
5.261111111111111,-1.035
5.263888888888889,-1.035
5.266666666666667,-1.015
5.269444444444445,-1.01
5.272222222222222,-0.995
5.275,-0.995
5.277777777777778,-0.985
5.280555555555556,-0.985
5.283333333333333,-0.97
5.286111111111111,-0.95
5.288888888888889,-0.945
5.291666666666667,-0.925
5.294444444444444,-0.91
5.2972222222222225,-0.89
5.3,-0.865
5.302777777777778,-0.86
5.305555555555555,-0.825
5.308333333333334,-0.81
5.311111111111111,-0.77
5.313888888888889,-0.74
5.316666666666666,-0.72
5.319444444444445,-0.71
5.322222222222222,-0.695
5.325,-0.7
5.3277777777777775,-0.705
5.330555555555556,-0.72
5.333333333333333,-0.695
5.336111111111111,-0.71
5.338888888888889,-0.72
5.341666666666667,-0.755
5.344444444444444,-0.8
5.347222222222222,-0.84
5.35,-0.9
5.352777777777778,-0.965
5.355555555555555,-1.015
5.358333333333333,-1.045
5.361111111111111,-1.04
5.363888888888889,-1.055
5.366666666666666,-1.06
5.3694444444444445,-1.045
5.372222222222222,-1.055
5.375,-1.05
5.377777777777778,-1.075
5.3805555555555555,-1.085
5.383333333333334,-1.08
5.386111111111111,-1.08
5.388888888888889,-1.08
5.391666666666667,-1.07
5.394444444444445,-1.065
5.397222222222222,-1.075
5.4,-1.07
5.402777777777778,-1.08
5.405555555555556,-1.09
5.408333333333333,-1.085
5.411111111111111,-1.1
5.413888888888889,-1.085
5.416666666666667,-1.1
5.419444444444444,-1.105
5.4222222222222225,-1.085
5.425,-1.075
5.427777777777778,-1.055
5.430555555555555,-1.065
5.433333333333334,-1.05
5.436111111111111,-1.055
5.438888888888889,-1.06
5.441666666666666,-1.085
5.444444444444445,-1.12
5.447222222222222,-1.12
5.45,-1.09
5.4527777777777775,-0.99
5.455555555555556,-0.835
5.458333333333333,-0.575
5.461111111111111,-0.255
5.463888888888889,0.145
5.466666666666667,0.535
5.469444444444444,0.865
5.472222222222222,1.065
5.475,1.165
5.477777777777778,1.11
5.480555555555555,0.9
5.483333333333333,0.525
5.486111111111111,-0.015
5.488888888888889,-0.575
5.491666666666666,-1.0
5.4944444444444445,-1.21
5.497222222222222,-1.21
5.5,-1.085
5.502777777777778,-0.955
5.5055555555555555,-0.855
5.508333333333334,-0.83
5.511111111111111,-0.855
5.513888888888889,-0.935
5.516666666666667,-0.99
5.519444444444445,-1.035
5.522222222222222,-1.05
5.525,-1.085
5.527777777777778,-1.055
5.530555555555556,-1.06
5.533333333333333,-1.025
5.536111111111111,-1.035
5.538888888888889,-1.045
5.541666666666667,-1.05
5.544444444444444,-1.055
5.5472222222222225,-1.09
5.55,-1.09
5.552777777777778,-1.085
5.555555555555555,-1.085
5.558333333333334,-1.08
5.561111111111111,-1.08
5.563888888888889,-1.07
5.566666666666666,-1.055
5.569444444444445,-1.065
5.572222222222222,-1.07
5.575,-1.06
5.5777777777777775,-1.08
5.580555555555556,-1.09
5.583333333333333,-1.09
5.586111111111111,-1.09
5.588888888888889,-1.085
5.591666666666667,-1.07
5.594444444444444,-1.07
5.597222222222222,-1.05
5.6,-1.045
5.602777777777778,-1.055
5.605555555555555,-1.065
5.608333333333333,-1.065
5.611111111111111,-1.04
5.613888888888889,-1.06
5.616666666666666,-1.055
5.6194444444444445,-1.05
5.622222222222222,-1.065
5.625,-1.04
5.627777777777778,-1.03
5.6305555555555555,-1.02
5.633333333333334,-1.025
5.636111111111111,-1.01
5.638888888888889,-0.99
5.641666666666667,-0.995
5.644444444444445,-0.99
5.647222222222222,-0.99
5.65,-0.985
5.652777777777778,-0.98
5.655555555555556,-0.97
5.658333333333333,-0.955
5.661111111111111,-0.935
5.663888888888889,-0.935
5.666666666666667,-0.91
5.669444444444444,-0.905
5.6722222222222225,-0.905
5.675,-0.89
5.677777777777778,-0.9
5.680555555555555,-0.915
5.683333333333334,-0.905
5.686111111111111,-0.88
5.688888888888889,-0.845
5.691666666666666,-0.82
5.694444444444445,-0.815
5.697222222222222,-0.775
5.7,-0.765
5.7027777777777775,-0.745
5.705555555555556,-0.71
5.708333333333333,-0.725
5.711111111111111,-0.695
5.713888888888889,-0.675
5.716666666666667,-0.64
5.719444444444444,-0.625
5.722222222222222,-0.605
5.725,-0.57
5.727777777777778,-0.55
5.730555555555555,-0.53
5.733333333333333,-0.51
5.736111111111111,-0.485
5.738888888888889,-0.47
5.741666666666666,-0.47
5.7444444444444445,-0.45
5.747222222222222,-0.445
5.75,-0.42
5.752777777777778,-0.425
5.7555555555555555,-0.415
5.758333333333334,-0.41
5.761111111111111,-0.395
5.763888888888889,-0.395
5.766666666666667,-0.37
5.769444444444445,-0.4
5.772222222222222,-0.41
5.775,-0.45
5.777777777777778,-0.485
5.780555555555556,-0.5
5.783333333333333,-0.53
5.786111111111111,-0.585
5.788888888888889,-0.615
5.791666666666667,-0.62
5.794444444444444,-0.65
5.7972222222222225,-0.665
5.8,-0.705
5.802777777777778,-0.74
5.805555555555555,-0.765
5.808333333333334,-0.8
5.811111111111111,-0.83
5.813888888888889,-0.85
5.816666666666666,-0.86
5.819444444444445,-0.885
5.822222222222222,-0.91
5.825,-0.905
5.8277777777777775,-0.915
5.830555555555556,-0.92
5.833333333333333,-0.93
5.836111111111111,-0.93
5.838888888888889,-0.955
5.841666666666667,-0.96
5.844444444444444,-0.97
5.847222222222222,-0.975
5.85,-0.985
5.852777777777778,-0.995
5.855555555555555,-1.0
5.858333333333333,-0.98
5.861111111111111,-0.99
5.863888888888889,-0.975
5.866666666666666,-0.96
5.8694444444444445,-0.965
5.872222222222222,-0.98
5.875,-0.985
5.877777777777778,-0.99
5.8805555555555555,-0.995
5.883333333333334,-0.98
5.886111111111111,-0.985
5.888888888888889,-0.985
5.891666666666667,-0.965
5.894444444444445,-0.945
5.897222222222222,-0.945
5.9,-0.925
5.902777777777778,-0.925
5.905555555555556,-0.94
5.908333333333333,-0.95
5.911111111111111,-0.955
5.913888888888889,-0.955
5.916666666666667,-0.935
5.919444444444444,-0.945
5.9222222222222225,-0.945
5.925,-0.93
5.927777777777778,-0.915
5.930555555555555,-0.915
5.933333333333334,-0.91
5.936111111111111,-0.915
5.938888888888889,-0.92
5.941666666666666,-0.93
5.944444444444445,-0.94
5.947222222222222,-0.92
5.95,-0.925
5.9527777777777775,-0.935
5.955555555555556,-0.915
5.958333333333333,-0.905
5.961111111111111,-0.895
5.963888888888889,-0.885
5.966666666666667,-0.89
5.969444444444444,-0.9
5.972222222222222,-0.9
5.975,-0.905
5.977777777777778,-0.905
5.980555555555555,-0.915
5.983333333333333,-0.93
5.986111111111111,-0.925
5.988888888888889,-0.93
5.991666666666666,-0.915
5.9944444444444445,-0.92
5.997222222222222,-0.915
6.0,-0.92
6.002777777777778,-0.915
6.0055555555555555,-0.92
6.008333333333334,-0.925
6.011111111111111,-0.93
6.013888888888889,-0.925
6.016666666666667,-0.945
6.019444444444445,-0.955
6.022222222222222,-0.955
6.025,-0.955
6.027777777777778,-0.94
6.030555555555556,-0.92
6.033333333333333,-0.92
6.036111111111111,-0.945
6.038888888888889,-0.945
6.041666666666667,-0.935
6.044444444444444,-0.945
6.0472222222222225,-0.95
6.05,-0.965
6.052777777777778,-0.96
6.055555555555555,-0.965
6.058333333333334,-0.945
6.061111111111111,-0.95
6.063888888888889,-0.94
6.066666666666666,-0.925
6.069444444444445,-0.945
6.072222222222222,-0.95
6.075,-0.97
6.0777777777777775,-0.965
6.080555555555556,-0.97
6.083333333333333,-0.97
6.086111111111111,-0.99
6.088888888888889,-0.99
6.091666666666667,-0.96
6.094444444444444,-0.975
6.097222222222222,-0.945
6.1,-0.95
6.102777777777778,-0.95
6.105555555555555,-0.96
6.108333333333333,-0.955
6.111111111111111,-0.965
6.113888888888889,-0.99
6.116666666666666,-0.975
6.1194444444444445,-0.975
6.122222222222222,-0.975
6.125,-0.96
6.127777777777778,-0.96
6.1305555555555555,-0.945
6.133333333333334,-0.94
6.136111111111111,-0.935
6.138888888888889,-0.93
6.141666666666667,-0.945
6.144444444444445,-0.945
6.147222222222222,-0.965
6.15,-0.95
6.152777777777778,-0.96
6.155555555555556,-0.955
6.158333333333333,-0.92
6.161111111111111,-0.905
6.163888888888889,-0.88
6.166666666666667,-0.86
6.169444444444444,-0.845
6.1722222222222225,-0.85
6.175,-0.835
6.177777777777778,-0.83
6.180555555555555,-0.815
6.183333333333334,-0.82
6.186111111111111,-0.815
6.188888888888889,-0.78
6.191666666666666,-0.745
6.194444444444445,-0.725
6.197222222222222,-0.685
6.2,-0.63
6.2027777777777775,-0.605
6.205555555555556,-0.59
6.208333333333333,-0.59
6.211111111111111,-0.6
6.213888888888889,-0.62
6.216666666666667,-0.635
6.219444444444444,-0.665
6.222222222222222,-0.645
6.225,-0.64
6.227777777777778,-0.645
6.230555555555555,-0.65
6.233333333333333,-0.71
6.236111111111111,-0.755
6.238888888888889,-0.82
6.241666666666666,-0.875
6.2444444444444445,-0.925
6.247222222222222,-0.96
6.25,-0.995
6.252777777777778,-1.02
6.2555555555555555,-1.01
6.258333333333334,-0.99
6.261111111111111,-0.97
6.263888888888889,-0.96
6.266666666666667,-0.97
6.269444444444445,-0.975
6.272222222222222,-0.975
6.275,-0.99
6.277777777777778,-1.01
6.280555555555556,-1.01
6.283333333333333,-1.015
6.286111111111111,-1.025
6.288888888888889,-1.01
6.291666666666667,-1.005
6.294444444444444,-1.015
6.2972222222222225,-0.995
6.3,-0.99
6.302777777777778,-0.98
6.305555555555555,-0.985
6.308333333333334,-0.99
6.311111111111111,-0.99
6.313888888888889,-0.99
6.316666666666666,-0.99
6.319444444444445,-0.99
6.322222222222222,-0.985
6.325,-0.995
6.3277777777777775,-0.985
6.330555555555556,-0.985
6.333333333333333,-0.99
6.336111111111111,-1.01
6.338888888888889,-1.035
6.341666666666667,-1.05
6.344444444444444,-1.035
6.347222222222222,-0.985
6.35,-0.88
6.352777777777778,-0.71
6.355555555555555,-0.45
6.358333333333333,-0.145
6.361111111111111,0.225
6.363888888888889,0.6
6.366666666666666,0.92
6.3694444444444445,1.13
6.372222222222222,1.205
6.375,1.2
6.377777777777778,1.085
6.3805555555555555,0.845
6.383333333333334,0.45
6.386111111111111,-0.045
6.388888888888889,-0.57
6.391666666666667,-0.935
6.394444444444445,-1.12
6.397222222222222,-1.095
6.4,-0.995
6.402777777777778,-0.845
6.405555555555556,-0.755
6.408333333333333,-0.745
6.411111111111111,-0.775
6.413888888888889,-0.825
6.416666666666667,-0.91
6.419444444444444,-0.96
6.4222222222222225,-0.99
6.425,-0.99
6.427777777777778,-0.97
6.430555555555555,-0.975
6.433333333333334,-0.95
6.436111111111111,-0.96
6.438888888888889,-0.965
6.441666666666666,-0.955
6.444444444444445,-0.97
6.447222222222222,-1.005
6.45,-1.005
6.4527777777777775,-1.02
6.455555555555556,-1.005
6.458333333333333,-1.0
6.461111111111111,-0.995
6.463888888888889,-1.0
6.466666666666667,-0.99
6.469444444444444,-0.99
6.472222222222222,-1.01
6.475,-0.995
6.477777777777778,-1.01
6.480555555555555,-1.015
6.483333333333333,-1.015
6.486111111111111,-1.025
6.488888888888889,-1.015
6.491666666666666,-1.0
6.4944444444444445,-0.99
6.497222222222222,-0.995
6.5,-0.99
6.502777777777778,-0.99
6.5055555555555555,-1.0
6.508333333333334,-0.995
6.511111111111111,-1.01
6.513888888888889,-1.03
6.516666666666667,-1.03
6.519444444444445,-1.005
6.522222222222222,-1.015
6.525,-0.995
6.527777777777778,-0.99
6.530555555555556,-0.97
6.533333333333333,-0.955
6.536111111111111,-0.955
6.538888888888889,-0.955
6.541666666666667,-0.955
6.544444444444444,-0.975
6.5472222222222225,-0.965
6.55,-0.97
6.552777777777778,-0.97
6.555555555555555,-0.97
6.558333333333334,-0.935
6.561111111111111,-0.925
6.563888888888889,-0.92
6.566666666666666,-0.925
6.569444444444445,-0.935
6.572222222222222,-0.925
6.575,-0.915
6.5777777777777775,-0.91
6.580555555555556,-0.91
6.583333333333333,-0.905
6.586111111111111,-0.895
6.588888888888889,-0.9
6.591666666666667,-0.875
6.594444444444444,-0.855
6.597222222222222,-0.825
6.6,-0.81
6.602777777777778,-0.8
6.605555555555555,-0.785
6.608333333333333,-0.775
6.611111111111111,-0.765
6.613888888888889,-0.765
6.616666666666666,-0.765
6.6194444444444445,-0.745
6.622222222222222,-0.72
6.625,-0.695
6.627777777777778,-0.67
6.6305555555555555,-0.635
6.633333333333334,-0.6
6.636111111111111,-0.59
6.638888888888889,-0.575
6.641666666666667,-0.56
6.644444444444445,-0.54
6.647222222222222,-0.535
6.65,-0.515
6.652777777777778,-0.505
6.655555555555556,-0.48
6.658333333333333,-0.46
6.661111111111111,-0.435
6.663888888888889,-0.42
6.666666666666667,-0.4
6.669444444444444,-0.38
6.6722222222222225,-0.355
6.675,-0.37
6.677777777777778,-0.365
6.680555555555555,-0.37
6.683333333333334,-0.375
6.686111111111111,-0.385
6.688888888888889,-0.4
6.691666666666666,-0.42
6.694444444444445,-0.44
6.697222222222222,-0.46
6.7,-0.47
6.7027777777777775,-0.505
6.705555555555556,-0.535
6.708333333333333,-0.575
6.711111111111111,-0.63
6.713888888888889,-0.64
6.716666666666667,-0.69
6.719444444444444,-0.715
6.722222222222222,-0.75
6.725,-0.755
6.727777777777778,-0.775
6.730555555555555,-0.78
6.733333333333333,-0.79
6.736111111111111,-0.815
6.738888888888889,-0.84
6.741666666666666,-0.85
6.7444444444444445,-0.895
6.747222222222222,-0.91
6.75,-0.925
6.752777777777778,-0.93
6.7555555555555555,-0.93
6.758333333333334,-0.94
6.761111111111111,-0.935
6.763888888888889,-0.92
6.766666666666667,-0.915
6.769444444444445,-0.925
6.772222222222222,-0.93
6.775,-0.935
6.777777777777778,-0.935
6.780555555555556,-0.935
6.783333333333333,-0.95
6.786111111111111,-0.965
6.788888888888889,-0.97
6.791666666666667,-0.965
6.794444444444444,-0.96
6.7972222222222225,-0.96
6.8,-0.93
6.802777777777778,-0.94
6.805555555555555,-0.935
6.808333333333334,-0.935
6.811111111111111,-0.935
6.813888888888889,-0.95
6.816666666666666,-0.945
6.819444444444445,-0.945
6.822222222222222,-0.935
6.825,-0.94
6.8277777777777775,-0.925
6.830555555555556,-0.925
6.833333333333333,-0.915
6.836111111111111,-0.915
6.838888888888889,-0.915
6.841666666666667,-0.91
6.844444444444444,-0.925
6.847222222222222,-0.92
6.85,-0.945
6.852777777777778,-0.95
6.855555555555555,-0.91
6.858333333333333,-0.865
6.861111111111111,-0.795
6.863888888888889,-0.69
6.866666666666666,-0.555
6.8694444444444445,-0.405
6.872222222222222,-0.28
6.875,-0.135
6.877777777777778,0.005
6.8805555555555555,0.175
6.883333333333334,0.36
6.886111111111111,0.555
6.888888888888889,0.78
6.891666666666667,1.0
6.894444444444445,1.215
6.897222222222222,1.395
6.9,1.57
6.902777777777778,1.715
6.905555555555556,1.83
6.908333333333333,1.9
6.911111111111111,1.935
6.913888888888889,1.94
6.916666666666667,1.945
6.919444444444444,1.915
6.9222222222222225,1.88
6.925,1.815
6.927777777777778,1.735
6.930555555555555,1.675
6.933333333333334,1.63
6.936111111111111,1.6
6.938888888888889,1.605
6.941666666666666,1.61
6.944444444444445,1.57
6.947222222222222,1.53
6.95,1.44
6.9527777777777775,1.3
6.955555555555556,1.15
6.958333333333333,0.985
6.961111111111111,0.78
6.963888888888889,0.53
6.966666666666667,0.18
6.969444444444444,-0.21
6.972222222222222,-0.6
6.975,-0.88
6.977777777777778,-1.07
6.980555555555555,-1.13
6.983333333333333,-1.145
6.986111111111111,-1.13
6.988888888888889,-1.1
6.991666666666666,-1.12
6.9944444444444445,-1.145
6.997222222222222,-1.19
7.0,-1.225
7.002777777777778,-1.255
7.0055555555555555,-1.3
7.008333333333334,-1.325
7.011111111111111,-1.355
7.013888888888889,-1.375
7.016666666666667,-1.395
7.019444444444445,-1.4
7.022222222222222,-1.415
7.025,-1.425
7.027777777777778,-1.43
7.030555555555556,-1.455
7.033333333333333,-1.455
7.036111111111111,-1.46
7.038888888888889,-1.465
7.041666666666667,-1.475
7.044444444444444,-1.495
7.0472222222222225,-1.52
7.05,-1.535
7.052777777777778,-1.545
7.055555555555555,-1.56
7.058333333333334,-1.56
7.061111111111111,-1.56
7.063888888888889,-1.57
7.066666666666666,-1.565
7.069444444444445,-1.575
7.072222222222222,-1.565
7.075,-1.575
7.0777777777777775,-1.575
7.080555555555556,-1.59
7.083333333333333,-1.59
7.086111111111111,-1.59
7.088888888888889,-1.605
7.091666666666667,-1.62
7.094444444444444,-1.605
7.097222222222222,-1.605
7.1,-1.585
7.102777777777778,-1.575
7.105555555555555,-1.6
7.108333333333333,-1.57
7.111111111111111,-1.585
7.113888888888889,-1.605
7.116666666666666,-1.635
7.1194444444444445,-1.675
7.122222222222222,-1.685
7.125,-1.71
7.127777777777778,-1.725
7.1305555555555555,-1.72
7.133333333333334,-1.745
7.136111111111111,-1.8
7.138888888888889,-1.855
7.141666666666667,-1.91
7.144444444444445,-1.98
7.147222222222222,-2.035
7.15,-2.1
7.152777777777778,-2.17
7.155555555555556,-2.215
7.158333333333333,-2.245
7.161111111111111,-2.275
7.163888888888889,-2.28
7.166666666666667,-2.315
7.169444444444444,-2.33
7.1722222222222225,-2.32
7.175,-2.335
7.177777777777778,-2.35
7.180555555555555,-2.36
7.183333333333334,-2.365
7.186111111111111,-2.375
7.188888888888889,-2.37
7.191666666666666,-2.35
7.194444444444445,-2.315
7.197222222222222,-2.29
7.2,-2.26
7.2027777777777775,-2.225
7.205555555555556,-2.195
7.208333333333333,-2.165
7.211111111111111,-2.145
7.213888888888889,-2.11
7.216666666666667,-2.04
7.219444444444444,-1.985
7.222222222222222,-1.92
7.225,-1.86
7.227777777777778,-1.79
7.230555555555555,-1.76
7.233333333333333,-1.67
7.236111111111111,-1.625
7.238888888888889,-1.58
7.241666666666666,-1.54
7.2444444444444445,-1.495
7.247222222222222,-1.455
7.25,-1.415
7.252777777777778,-1.38
7.2555555555555555,-1.35
7.258333333333334,-1.33
7.261111111111111,-1.3
7.263888888888889,-1.27
7.266666666666667,-1.27
7.269444444444445,-1.255
7.272222222222222,-1.235
7.275,-1.23
7.277777777777778,-1.225
7.280555555555556,-1.225
7.283333333333333,-1.22
7.286111111111111,-1.26
7.288888888888889,-1.24
7.291666666666667,-1.215
7.294444444444444,-1.205
7.2972222222222225,-1.22
7.3,-1.205
7.302777777777778,-1.205
7.305555555555555,-1.2
7.308333333333334,-1.21
7.311111111111111,-1.215
7.313888888888889,-1.21
7.316666666666666,-1.215
7.319444444444445,-1.225
7.322222222222222,-1.2
7.325,-1.205
7.3277777777777775,-1.195
7.330555555555556,-1.19
7.333333333333333,-1.17
7.336111111111111,-1.17
7.338888888888889,-1.175
7.341666666666667,-1.17
7.344444444444444,-1.18
7.347222222222222,-1.19
7.35,-1.185
7.352777777777778,-1.18
7.355555555555555,-1.175
7.358333333333333,-1.175
7.361111111111111,-1.155
7.363888888888889,-1.145
7.366666666666666,-1.13
7.3694444444444445,-1.115
7.372222222222222,-1.12
7.375,-1.135
7.377777777777778,-1.135
7.3805555555555555,-1.145
7.383333333333334,-1.14
7.386111111111111,-1.135
7.388888888888889,-1.145
7.391666666666667,-1.13
7.394444444444445,-1.13
7.397222222222222,-1.125
7.4,-1.115
7.402777777777778,-1.105
7.405555555555556,-1.115
7.408333333333333,-1.095
7.411111111111111,-1.095
7.413888888888889,-1.11
7.416666666666667,-1.115
7.419444444444444,-1.11
7.4222222222222225,-1.115
7.425,-1.1
7.427777777777778,-1.12
7.430555555555555,-1.095
7.433333333333334,-1.08
7.436111111111111,-1.085
7.438888888888889,-1.08
7.441666666666666,-1.08
7.444444444444445,-1.075
7.447222222222222,-1.085
7.45,-1.1
7.4527777777777775,-1.105
7.455555555555556,-1.09
7.458333333333333,-1.1
7.461111111111111,-1.08
7.463888888888889,-1.075
7.466666666666667,-1.06
7.469444444444444,-1.05
7.472222222222222,-1.035
7.475,-1.045
7.477777777777778,-1.055
7.480555555555555,-1.06
7.483333333333333,-1.07
7.486111111111111,-1.065
7.488888888888889,-1.08
7.491666666666666,-1.08
7.4944444444444445,-1.06
7.497222222222222,-1.045
7.5,-1.035
7.502777777777778,-1.04
7.5055555555555555,-1.04
7.508333333333334,-1.04
7.511111111111111,-1.045
7.513888888888889,-1.06
7.516666666666667,-1.05
7.519444444444445,-1.045
7.522222222222222,-1.045
7.525,-1.05
7.527777777777778,-1.03
7.530555555555556,-1.035
7.533333333333333,-1.015
7.536111111111111,-1.015
7.538888888888889,-1.02
7.541666666666667,-1.025
7.544444444444444,-1.02
7.5472222222222225,-1.03
7.55,-1.03
7.552777777777778,-1.02
7.555555555555555,-1.025
7.558333333333334,-1.035
7.561111111111111,-1.015
7.563888888888889,-1.01
7.566666666666666,-1.005
7.569444444444445,-0.995
7.572222222222222,-1.0
7.575,-1.01
7.5777777777777775,-1.01
7.580555555555556,-1.015
7.583333333333333,-1.025
7.586111111111111,-1.03
7.588888888888889,-1.025
7.591666666666667,-1.015
7.594444444444444,-1.01
7.597222222222222,-0.98
7.6,-0.975
7.602777777777778,-0.96
7.605555555555555,-0.985
7.608333333333333,-0.985
7.611111111111111,-1.005
7.613888888888889,-0.995
7.616666666666666,-1.01
7.6194444444444445,-1.03
7.622222222222222,-1.005
7.625,-1.01
7.627777777777778,-0.995
7.6305555555555555,-0.975
7.633333333333334,-0.965
7.636111111111111,-0.96
7.638888888888889,-0.955
7.641666666666667,-0.97
7.644444444444445,-0.99
7.647222222222222,-0.985
7.65,-1.005
7.652777777777778,-0.985
7.655555555555556,-0.985
7.658333333333333,-0.97
7.661111111111111,-0.98
7.663888888888889,-0.955
7.666666666666667,-0.95
7.669444444444444,-0.95
7.6722222222222225,-0.96
7.675,-0.955
7.677777777777778,-0.98
7.680555555555555,-0.98
7.683333333333334,-0.985
7.686111111111111,-0.985
7.688888888888889,-0.99
7.691666666666666,-0.97
7.694444444444445,-0.96
7.697222222222222,-0.96
7.7,-0.945
7.7027777777777775,-0.95
7.705555555555556,-0.95
7.708333333333333,-0.95
7.711111111111111,-0.96
7.713888888888889,-0.965
7.716666666666667,-0.99
7.719444444444444,-0.975
7.722222222222222,-0.97
7.725,-0.96
7.727777777777778,-0.96
7.730555555555555,-0.965
7.733333333333333,-0.93
7.736111111111111,-0.945
7.738888888888889,-0.95
7.741666666666666,-0.955
7.7444444444444445,-0.965
7.747222222222222,-0.965
7.75,-0.975
7.752777777777778,-0.975
7.7555555555555555,-0.955
7.758333333333334,-0.955
7.761111111111111,-0.94
7.763888888888889,-0.955
7.766666666666667,-0.95
7.769444444444445,-0.95
7.772222222222222,-0.945
7.775,-0.95
7.777777777777778,-0.955
7.780555555555556,-0.96
7.783333333333333,-0.965
7.786111111111111,-0.97
7.788888888888889,-0.96
7.791666666666667,-0.96
7.794444444444444,-0.955
7.7972222222222225,-0.935
7.8,-0.945
7.802777777777778,-0.935
7.805555555555555,-0.925
7.808333333333334,-0.93
7.811111111111111,-0.935
7.813888888888889,-0.945
7.816666666666666,-0.95
7.819444444444445,-0.965
7.822222222222222,-0.975
7.825,-0.95
7.8277777777777775,-0.935
7.830555555555556,-0.95
7.833333333333333,-0.925
7.836111111111111,-0.915
7.838888888888889,-0.925
7.841666666666667,-0.925
7.844444444444444,-0.93
7.847222222222222,-0.93
7.85,-0.935
7.852777777777778,-0.945
7.855555555555555,-0.935
7.858333333333333,-0.935
7.861111111111111,-0.94
7.863888888888889,-0.92
7.866666666666666,-0.905
7.8694444444444445,-0.895
7.872222222222222,-0.905
7.875,-0.905
7.877777777777778,-0.91
7.8805555555555555,-0.92
7.883333333333334,-0.935
7.886111111111111,-0.96
7.888888888888889,-0.955
7.891666666666667,-0.925
7.894444444444445,-0.92
7.897222222222222,-0.92
7.9,-0.915
7.902777777777778,-0.905
7.905555555555556,-0.885
7.908333333333333,-0.9
7.911111111111111,-0.895
7.913888888888889,-0.905
7.916666666666667,-0.92
7.919444444444444,-0.915
7.9222222222222225,-0.93
7.925,-0.92
7.927777777777778,-0.92
7.930555555555555,-0.92
7.933333333333334,-0.915
7.936111111111111,-0.885
7.938888888888889,-0.885
7.941666666666666,-0.885
7.944444444444445,-0.91
7.947222222222222,-0.925
7.95,-0.935
7.9527777777777775,-0.915
7.955555555555556,-0.905
7.958333333333333,-0.905
7.961111111111111,-0.895
7.963888888888889,-0.9
7.966666666666667,-0.88
7.969444444444444,-0.885
7.972222222222222,-0.89
7.975,-0.87
7.977777777777778,-0.89
7.980555555555555,-0.905
7.983333333333333,-0.91
7.986111111111111,-0.93
7.988888888888889,-0.93
7.991666666666666,-0.925
7.9944444444444445,-0.895
7.997222222222222,-0.89
8.0,-0.87
8.002777777777778,-0.865
8.005555555555556,-0.87
8.008333333333333,-0.875
8.011111111111111,-0.875
8.01388888888889,-0.885
8.016666666666667,-0.89
8.019444444444444,-0.895
8.022222222222222,-0.885
8.025,-0.875
8.027777777777779,-0.85
8.030555555555555,-0.825
8.033333333333333,-0.81
8.036111111111111,-0.775
8.03888888888889,-0.775
8.041666666666666,-0.765
8.044444444444444,-0.78
8.047222222222222,-0.775
8.05,-0.745
8.052777777777777,-0.72
8.055555555555555,-0.69
8.058333333333334,-0.655
8.061111111111112,-0.605
8.063888888888888,-0.555
8.066666666666666,-0.52
8.069444444444445,-0.52
8.072222222222223,-0.52
8.075,-0.545
8.077777777777778,-0.545
8.080555555555556,-0.58
8.083333333333334,-0.575
8.08611111111111,-0.575
8.088888888888889,-0.575
8.091666666666667,-0.585
8.094444444444445,-0.605
8.097222222222221,-0.645
8.1,-0.685
8.102777777777778,-0.745
8.105555555555556,-0.815
8.108333333333333,-0.84
8.11111111111111,-0.88
8.113888888888889,-0.89
8.116666666666667,-0.91
8.119444444444444,-0.905
8.122222222222222,-0.9
8.125,-0.895
8.127777777777778,-0.895
8.130555555555556,-0.89
8.133333333333333,-0.88
8.136111111111111,-0.885
8.13888888888889,-0.885
8.141666666666667,-0.89
8.144444444444444,-0.895
8.147222222222222,-0.915
8.15,-0.91
8.152777777777779,-0.92
8.155555555555555,-0.91
8.158333333333333,-0.905
8.161111111111111,-0.885
8.16388888888889,-0.9
8.166666666666666,-0.905
8.169444444444444,-0.885
8.172222222222222,-0.895
8.175,-0.935
8.177777777777777,-0.965
8.180555555555555,-0.98
8.183333333333334,-0.95
8.186111111111112,-0.875
8.188888888888888,-0.735
8.191666666666666,-0.525
8.194444444444445,-0.26
8.197222222222223,0.07
8.2,0.435
8.202777777777778,0.795
8.205555555555556,1.075
8.208333333333334,1.275
8.21111111111111,1.345
8.213888888888889,1.32
8.216666666666667,1.19
8.219444444444445,0.935
8.222222222222221,0.545
8.225,0.045
8.227777777777778,-0.46
8.230555555555556,-0.84
8.233333333333333,-1.0
8.23611111111111,-0.98
8.238888888888889,-0.86
8.241666666666667,-0.745
8.244444444444444,-0.67
8.247222222222222,-0.665
8.25,-0.695
8.252777777777778,-0.78
8.255555555555556,-0.83
8.258333333333333,-0.885
8.261111111111111,-0.91
8.26388888888889,-0.93
8.266666666666667,-0.905
8.269444444444444,-0.895
8.272222222222222,-0.89
8.275,-0.9
8.277777777777779,-0.895
8.280555555555555,-0.91
8.283333333333333,-0.925
8.286111111111111,-0.935
8.28888888888889,-0.95
8.291666666666666,-0.945
8.294444444444444,-0.93
8.297222222222222,-0.935
8.3,-0.925
8.302777777777777,-0.91
8.305555555555555,-0.915
8.308333333333334,-0.935
8.311111111111112,-0.935
8.313888888888888,-0.935
8.316666666666666,-0.96
8.319444444444445,-0.985
8.322222222222223,-0.96
8.325,-0.955
8.327777777777778,-0.955
8.330555555555556,-0.935
8.333333333333334,-0.935
8.33611111111111,-0.925
8.338888888888889,-0.925
8.341666666666667,-0.93
8.344444444444445,-0.945
8.347222222222221,-0.955
8.35,-0.98
8.352777777777778,-0.97
8.355555555555556,-0.955
8.358333333333333,-0.95
8.36111111111111,-0.94
8.363888888888889,-0.935
8.366666666666667,-0.925
8.369444444444444,-0.92
8.372222222222222,-0.93
8.375,-0.92
8.377777777777778,-0.925
8.380555555555556,-0.945
8.383333333333333,-0.935
8.386111111111111,-0.94
8.38888888888889,-0.935
8.391666666666667,-0.915
8.394444444444444,-0.915
8.397222222222222,-0.895
8.4,-0.885
8.402777777777779,-0.875
8.405555555555555,-0.87
8.408333333333333,-0.875
8.411111111111111,-0.86
8.41388888888889,-0.865
8.416666666666666,-0.88
8.419444444444444,-0.87
8.422222222222222,-0.85
8.425,-0.85
8.427777777777777,-0.81
8.430555555555555,-0.81
8.433333333333334,-0.78
8.436111111111112,-0.77
8.438888888888888,-0.77
8.441666666666666,-0.76
8.444444444444445,-0.765
8.447222222222223,-0.75
8.45,-0.765
8.452777777777778,-0.74
8.455555555555556,-0.73
8.458333333333334,-0.695
8.46111111111111,-0.67
8.463888888888889,-0.65
8.466666666666667,-0.62
8.469444444444445,-0.605
8.472222222222221,-0.595
8.475,-0.575
8.477777777777778,-0.57
8.480555555555556,-0.565
8.483333333333333,-0.555
8.48611111111111,-0.545
8.488888888888889,-0.535
8.491666666666667,-0.515
8.494444444444444,-0.48
8.497222222222222,-0.475
8.5,-0.465
8.502777777777778,-0.435
8.505555555555556,-0.425
8.508333333333333,-0.41
8.511111111111111,-0.41
8.51388888888889,-0.42
8.516666666666667,-0.4
8.519444444444444,-0.405
8.522222222222222,-0.38
8.525,-0.36
8.527777777777779,-0.345
8.530555555555555,-0.34
8.533333333333333,-0.335
8.536111111111111,-0.32
8.53888888888889,-0.33
8.541666666666666,-0.33
8.544444444444444,-0.35
8.547222222222222,-0.37
8.55,-0.39
8.552777777777777,-0.415
8.555555555555555,-0.445
8.558333333333334,-0.45
8.561111111111112,-0.475
8.563888888888888,-0.485
8.566666666666666,-0.51
8.569444444444445,-0.52
8.572222222222223,-0.545
8.575,-0.58
8.577777777777778,-0.605
8.580555555555556,-0.63
8.583333333333334,-0.65
8.58611111111111,-0.685
8.588888888888889,-0.71
8.591666666666667,-0.725
8.594444444444445,-0.725
8.597222222222221,-0.73
8.6,-0.73
8.602777777777778,-0.735
8.605555555555556,-0.755
8.608333333333333,-0.775
8.61111111111111,-0.78
8.613888888888889,-0.795
8.616666666666667,-0.81
8.619444444444444,-0.805
8.622222222222222,-0.8
8.625,-0.795
8.627777777777778,-0.805
8.630555555555556,-0.8
8.633333333333333,-0.79
8.636111111111111,-0.78
8.63888888888889,-0.795
8.641666666666667,-0.79
8.644444444444444,-0.79
8.647222222222222,-0.8
8.65,-0.8
8.652777777777779,-0.82
8.655555555555555,-0.815
8.658333333333333,-0.795
8.661111111111111,-0.79
8.66388888888889,-0.78
8.666666666666666,-0.77
8.669444444444444,-0.775
8.672222222222222,-0.775
8.675,-0.77
8.677777777777777,-0.78
8.680555555555555,-0.79
8.683333333333334,-0.785
8.686111111111112,-0.785
8.688888888888888,-0.79
8.691666666666666,-0.78
8.694444444444445,-0.765
8.697222222222223,-0.77
8.7,-0.755
8.702777777777778,-0.76
8.705555555555556,-0.775
8.708333333333334,-0.77
8.71111111111111,-0.775
8.713888888888889,-0.785
8.716666666666667,-0.79
8.719444444444445,-0.795
8.722222222222221,-0.805
8.725,-0.8
8.727777777777778,-0.79
8.730555555555556,-0.78
8.733333333333333,-0.775
8.73611111111111,-0.78
8.738888888888889,-0.785
8.741666666666667,-0.785
8.744444444444444,-0.8
8.747222222222222,-0.81
8.75,-0.825
8.752777777777778,-0.825
8.755555555555556,-0.84
8.758333333333333,-0.825
8.761111111111111,-0.81
8.76388888888889,-0.8
8.766666666666667,-0.79
8.769444444444444,-0.795
8.772222222222222,-0.8
8.775,-0.83
8.777777777777779,-0.84
8.780555555555555,-0.85
8.783333333333333,-0.845
8.786111111111111,-0.85
8.78888888888889,-0.845
8.791666666666666,-0.84
8.794444444444444,-0.84
8.797222222222222,-0.825
8.8,-0.82
8.802777777777777,-0.825
8.805555555555555,-0.83
8.808333333333334,-0.845
8.811111111111112,-0.88
8.813888888888888,-0.88
8.816666666666666,-0.88
8.819444444444445,-0.89
8.822222222222223,-0.89
8.825,-0.895
8.827777777777778,-0.9
8.830555555555556,-0.89
8.833333333333334,-0.87
8.83611111111111,-0.885
8.838888888888889,-0.87
8.841666666666667,-0.87
8.844444444444445,-0.89
8.847222222222221,-0.895
8.85,-0.905
8.852777777777778,-0.9
8.855555555555556,-0.91
8.858333333333333,-0.9
8.86111111111111,-0.91
8.863888888888889,-0.89
8.866666666666667,-0.88
8.869444444444444,-0.87
8.872222222222222,-0.88
8.875,-0.875
8.877777777777778,-0.89
8.880555555555556,-0.885
8.883333333333333,-0.915
8.886111111111111,-0.905
8.88888888888889,-0.925
8.891666666666667,-0.905
8.894444444444444,-0.88
8.897222222222222,-0.88
8.9,-0.885
8.902777777777779,-0.875
8.905555555555555,-0.88
8.908333333333333,-0.88
8.911111111111111,-0.89
8.91388888888889,-0.9
8.916666666666666,-0.91
8.919444444444444,-0.92
8.922222222222222,-0.92
8.925,-0.895
8.927777777777777,-0.89
8.930555555555555,-0.885
8.933333333333334,-0.875
8.936111111111112,-0.89
8.938888888888888,-0.89
8.941666666666666,-0.885
8.944444444444445,-0.88
8.947222222222223,-0.895
8.95,-0.885
8.952777777777778,-0.885
8.955555555555556,-0.895
8.958333333333334,-0.85
8.96111111111111,-0.83
8.963888888888889,-0.805
8.966666666666667,-0.78
8.969444444444445,-0.76
8.972222222222221,-0.75
8.975,-0.745
8.977777777777778,-0.725
8.980555555555556,-0.72
8.983333333333333,-0.72
8.98611111111111,-0.7
8.988888888888889,-0.69
8.991666666666667,-0.655
8.994444444444444,-0.59
8.997222222222222,-0.56
9.0,-0.52
9.002777777777778,-0.495
9.005555555555556,-0.515
9.008333333333333,-0.535
9.011111111111111,-0.565
9.01388888888889,-0.57
9.016666666666667,-0.565
9.019444444444444,-0.585
9.022222222222222,-0.575
9.025,-0.59
9.027777777777779,-0.595
9.030555555555555,-0.605
9.033333333333333,-0.65
9.036111111111111,-0.705
9.03888888888889,-0.755
9.041666666666666,-0.805
9.044444444444444,-0.86
9.047222222222222,-0.895
9.05,-0.89
9.052777777777777,-0.915
9.055555555555555,-0.9
9.058333333333334,-0.915
9.061111111111112,-0.89
9.063888888888888,-0.905
9.066666666666666,-0.89
9.069444444444445,-0.89
9.072222222222223,-0.91
9.075,-0.93
9.077777777777778,-0.945
9.080555555555556,-0.94
9.083333333333334,-0.945
9.08611111111111,-0.94
9.088888888888889,-0.945
9.091666666666667,-0.925
9.094444444444445,-0.925
9.097222222222221,-0.915
9.1,-0.91
9.102777777777778,-0.905
9.105555555555556,-0.91
9.108333333333333,-0.91
9.11111111111111,-0.9
9.113888888888889,-0.93
9.116666666666667,-0.93
9.119444444444444,-0.94
9.122222222222222,-0.97
9.125,-0.975
9.127777777777778,-0.975
9.130555555555556,-0.93
9.133333333333333,-0.85
9.136111111111111,-0.7
9.13888888888889,-0.5
9.141666666666667,-0.185
9.144444444444444,0.155
9.147222222222222,0.535
9.15,0.88
9.152777777777779,1.13
9.155555555555555,1.28
9.158333333333333,1.29
9.161111111111111,1.23
9.16388888888889,1.035
9.166666666666666,0.71
9.169444444444444,0.25
9.172222222222222,-0.285
9.175,-0.715
9.177777777777777,-0.99
9.180555555555555,-1.07
9.183333333333334,-0.975
9.186111111111112,-0.855
9.188888888888888,-0.72
9.191666666666666,-0.665
9.194444444444445,-0.67
9.197222222222223,-0.71
9.2,-0.77
9.202777777777778,-0.825
9.205555555555556,-0.87
9.208333333333334,-0.89
9.21111111111111,-0.905
9.213888888888889,-0.915
9.216666666666667,-0.92
9.219444444444445,-0.9
9.222222222222221,-0.915
9.225,-0.92
9.227777777777778,-0.91
9.230555555555556,-0.895
9.233333333333333,-0.895
9.23611111111111,-0.9
9.238888888888889,-0.915
9.241666666666667,-0.92
9.244444444444444,-0.935
9.247222222222222,-0.94
9.25,-0.935
9.252777777777778,-0.94
9.255555555555556,-0.95
9.258333333333333,-0.95
9.261111111111111,-0.93
9.26388888888889,-0.93
9.266666666666667,-0.905
9.269444444444444,-0.9
9.272222222222222,-0.905
9.275,-0.925
9.277777777777779,-0.92
9.280555555555555,-0.93
9.283333333333333,-0.945
9.286111111111111,-0.94
9.28888888888889,-0.94
9.291666666666666,-0.935
9.294444444444444,-0.915
9.297222222222222,-0.91
9.3,-0.91
9.302777777777777,-0.89
9.305555555555555,-0.895
9.308333333333334,-0.9
9.311111111111112,-0.92
9.313888888888888,-0.915
9.316666666666666,-0.925
9.319444444444445,-0.92
9.322222222222223,-0.93
9.325,-0.94
9.327777777777778,-0.9
9.330555555555556,-0.88
9.333333333333334,-0.865
9.33611111111111,-0.86
9.338888888888889,-0.855
9.341666666666667,-0.855
9.344444444444445,-0.855
9.347222222222221,-0.85
9.35,-0.86
9.352777777777778,-0.845
9.355555555555556,-0.865
9.358333333333333,-0.84
9.36111111111111,-0.815
9.363888888888889,-0.82
9.366666666666667,-0.8
9.369444444444444,-0.775
9.372222222222222,-0.775
9.375,-0.755
9.377777777777778,-0.765
9.380555555555556,-0.735
9.383333333333333,-0.74
9.386111111111111,-0.73
9.38888888888889,-0.71
9.391666666666667,-0.705
9.394444444444444,-0.67
9.397222222222222,-0.665
9.4,-0.62
9.402777777777779,-0.595
9.405555555555555,-0.565
9.408333333333333,-0.56
9.411111111111111,-0.54
9.41388888888889,-0.535
9.416666666666666,-0.535
9.419444444444444,-0.515
9.422222222222222,-0.5
9.425,-0.475
9.427777777777777,-0.445
9.430555555555555,-0.41
9.433333333333334,-0.38
9.436111111111112,-0.36
9.438888888888888,-0.35
9.441666666666666,-0.33
9.444444444444445,-0.345
9.447222222222223,-0.335
9.45,-0.32
9.452777777777778,-0.33
9.455555555555556,-0.32
9.458333333333334,-0.325
9.46111111111111,-0.295
9.463888888888889,-0.31
9.466666666666667,-0.3
9.469444444444445,-0.31
9.472222222222221,-0.325
9.475,-0.345
9.477777777777778,-0.39
9.480555555555556,-0.405
9.483333333333333,-0.435
9.48611111111111,-0.455
9.488888888888889,-0.5
9.491666666666667,-0.515
9.494444444444444,-0.535
9.497222222222222,-0.565
9.5,-0.595
9.502777777777778,-0.61
9.505555555555556,-0.635
9.508333333333333,-0.67
9.511111111111111,-0.705
9.51388888888889,-0.725
9.516666666666667,-0.75
9.519444444444444,-0.775
9.522222222222222,-0.785
9.525,-0.795
9.527777777777779,-0.8
9.530555555555555,-0.81
9.533333333333333,-0.8
9.536111111111111,-0.82
9.53888888888889,-0.845
9.541666666666666,-0.84
9.544444444444444,-0.86
9.547222222222222,-0.885
9.55,-0.87
9.552777777777777,-0.865
9.555555555555555,-0.885
9.558333333333334,-0.88
9.561111111111112,-0.875
9.563888888888888,-0.855
9.566666666666666,-0.86
9.569444444444445,-0.85
9.572222222222223,-0.87
9.575,-0.86
9.577777777777778,-0.855
9.580555555555556,-0.865
9.583333333333334,-0.865
9.58611111111111,-0.91
9.588888888888889,-0.905
9.591666666666667,-0.895
9.594444444444445,-0.885
9.597222222222221,-0.85
9.6,-0.855
9.602777777777778,-0.84
9.605555555555556,-0.845
9.608333333333333,-0.83
9.61111111111111,-0.86
9.613888888888889,-0.86
9.616666666666667,-0.875
9.619444444444444,-0.87
9.622222222222222,-0.89
9.625,-0.875
9.627777777777778,-0.85
9.630555555555556,-0.85
9.633333333333333,-0.835
9.636111111111111,-0.83
9.63888888888889,-0.835
9.641666666666667,-0.84
9.644444444444444,-0.835
9.647222222222222,-0.845
9.65,-0.86
9.652777777777779,-0.86
9.655555555555555,-0.885
9.658333333333333,-0.865
9.661111111111111,-0.85
9.66388888888889,-0.845
9.666666666666666,-0.845
9.669444444444444,-0.83
9.672222222222222,-0.83
9.675,-0.84
9.677777777777777,-0.845
9.680555555555555,-0.855
9.683333333333334,-0.865
9.686111111111112,-0.865
9.688888888888888,-0.875
9.691666666666666,-0.87
9.694444444444445,-0.86
9.697222222222223,-0.84
9.7,-0.84
9.702777777777778,-0.84
9.705555555555556,-0.84
9.708333333333334,-0.86
9.71111111111111,-0.88
9.713888888888889,-0.895
9.716666666666667,-0.895
9.719444444444445,-0.89
9.722222222222221,-0.895
9.725,-0.9
9.727777777777778,-0.89
9.730555555555556,-0.875
9.733333333333333,-0.865
9.73611111111111,-0.865
9.738888888888889,-0.87
9.741666666666667,-0.895
9.744444444444444,-0.89
9.747222222222222,-0.905
9.75,-0.905
9.752777777777778,-0.91
9.755555555555556,-0.915
9.758333333333333,-0.905
9.761111111111111,-0.89
9.76388888888889,-0.885
9.766666666666667,-0.875
9.769444444444444,-0.875
9.772222222222222,-0.875
9.775,-0.905
9.777777777777779,-0.885
9.780555555555555,-0.895
9.783333333333333,-0.91
9.786111111111111,-0.905
9.78888888888889,-0.91
9.791666666666666,-0.91
9.794444444444444,-0.88
9.797222222222222,-0.875
9.8,-0.88
9.802777777777777,-0.89
9.805555555555555,-0.89
9.808333333333334,-0.91
9.811111111111112,-0.91
9.813888888888888,-0.92
9.816666666666666,-0.905
9.819444444444445,-0.92
9.822222222222223,-0.915
9.825,-0.915
9.827777777777778,-0.905
9.830555555555556,-0.89
9.833333333333334,-0.875
9.83611111111111,-0.855
9.838888888888889,-0.845
9.841666666666667,-0.835
9.844444444444445,-0.825
9.847222222222221,-0.82
9.85,-0.815
9.852777777777778,-0.8
9.855555555555556,-0.795
9.858333333333333,-0.77
9.86111111111111,-0.755
9.863888888888889,-0.725
9.866666666666667,-0.715
9.869444444444444,-0.665
9.872222222222222,-0.63
9.875,-0.585
9.877777777777778,-0.585
9.880555555555556,-0.56
9.883333333333333,-0.57
9.886111111111111,-0.585
9.88888888888889,-0.59
9.891666666666667,-0.59
9.894444444444444,-0.58
9.897222222222222,-0.565
9.9,-0.575
9.902777777777779,-0.59
9.905555555555555,-0.63
9.908333333333333,-0.695
9.911111111111111,-0.755
9.91388888888889,-0.815
9.916666666666666,-0.875
9.919444444444444,-0.905
9.922222222222222,-0.94
9.925,-0.95
9.927777777777777,-0.935
9.930555555555555,-0.92
9.933333333333334,-0.93
9.936111111111112,-0.91
9.938888888888888,-0.92
9.941666666666666,-0.93
9.944444444444445,-0.93
9.947222222222223,-0.96
9.95,-0.955
9.952777777777778,-0.975
9.955555555555556,-0.98
9.958333333333334,-0.96
9.96111111111111,-0.95
9.963888888888889,-0.945
9.966666666666667,-0.945
9.969444444444445,-0.935
9.972222222222221,-0.935
9.975,-0.94
9.977777777777778,-0.96
9.980555555555556,-0.97
9.983333333333333,-0.96
9.98611111111111,-0.97
9.988888888888889,-0.97
9.991666666666667,-0.985
9.994444444444444,-0.975
9.997222222222222,-0.97
